timestamp_ms,x_g,y_g,z_g,beat_event,ppg_raw
120594,-0.0017056681294598253,-0.003132154518654673,-0.002977867534728895,0,
120598,-0.0019868816049974924,-0.003517253759116823,-0.0038177411838596076,0,
120602,-0.0017216161457774826,0.0015060373153708007,-0.004074441991248956,0,
120606,-0.003600710377212768,0.004745349412685229,-0.0015358941043026875,0,
120609,-0.006711157589352479,0.00038603863191299936,0.0015741054081863382,0,
120613,-0.004358872592963192,-0.0005329340816424555,0.0002980309388919966,0,
120617,0.0009883616362824643,0.006583464239926506,-0.002850689190199762,0,
120621,0.0029357205025899447,0.016247894995509604,-0.00481878936064431,0,
120625,0.006301304091006599,0.01888494052894618,-0.005992056184336875,0,
120629,0.009743069251206049,0.010771188678523558,-0.005087418190419302,0,
120596,,,,0,138886
120606,,,,0,138917
120616,,,,0,138944
120626,,,,0,138968
120633,0.004954975535454875,0.0039062024608860213,0.001071623476181477,0,
120637,-0.0016288939830995108,0.0033804982620000423,0.006456481157524813,0,
120641,-0.0034448300678203703,0.0017010843826863464,0.0019967589796168195,0,
120645,-0.0037951382201834027,-0.001387681469592117,-0.006367073867211831,0,
120648,-0.003187852943915326,-0.0018211407403452284,-0.008539024948020862,0,
120652,-0.0006166201766804047,0.0009071207448054786,-0.0035229296347349115,0,
120656,0.0011533920685198318,0.007157609696531786,0.0026377248879409787,0,
120660,0.000394961148673989,0.010415957086796102,0.0035515393374000725,0,
120664,-0.0009692922451159935,0.007702489623998776,0.0002829342574362792,0,
120668,-0.0007691377587837334,0.009979041673604527,-0.0009364897469268663,0,
120672,-0.0007908521862639573,0.015424470326105055,-0.00018374698627623975,0,
120676,-0.0028651573448403855,0.008196030593402792,-0.005522937076715639,0,
120680,-0.004100094300401147,-0.008416578289233811,-0.014652237276224833,0,
120684,-0.0031744582209057848,-0.014226105503892139,-0.014707654129191533,0,
120688,-0.001606911166143421,-0.004656104369969327,-0.008050308114699756,0,
120691,-0.0003328431940561316,0.005542238439096181,-0.0033853782873637384,0,
120695,-0.002418480538206702,0.004124959263911432,-0.000735406094509089,0,
120699,-0.006655121240616957,-0.005738091633908926,-0.0011454991392453873,0,
120703,-0.005907885458181106,-0.011328383881614723,-0.004671113026204182,0,
120707,-0.0015625071628091458,-0.006001681659393743,-0.00614737526135431,0,
120711,0.0014855258496419,0.005317982788640929,-0.0037588999416048596,0,
120715,0.005496945860877789,0.007562799770038264,-0.0005876140499254112,0,
120719,0.009981584915211839,0.00347386774501679,0.0010927787289600754,0,
120723,0.008747132201347707,0.010937749388451046,-0.00016040321822616277,0,
120727,0.0038595104347398657,0.022139339050723184,-0.0029604809460779535,0,
120731,0.0003369855835089197,0.02301029320982373,-0.004712133320879303,0,
120734,-0.0011438310037874544,0.01615596906695993,-0.005792429625465195,0,
120738,0.0024653971774416528,0.009324730563737393,-0.006924910804825518,0,
120742,0.006524270962311229,0.00508223766747351,-0.006817566467932579,0,
120746,0.004056583340216635,0.004227833646227364,-0.005005583718463769,0,
120750,0.001505796803225934,-0.0003816174826947183,-0.003457414119365426,0,
120754,0.002284897559700183,-0.012391363740915207,-0.0026144629710070644,0,
120758,0.0011860515754320566,-0.018334795156188743,-0.0013619673765585816,0,
120762,-0.001577142801889031,-0.017136833113641448,0.0011062155977897281,0,
120636,,,,0,139007
120646,,,,0,139023
120656,,,,0,139036
120666,,,,0,139041
120676,,,,0,139059
120686,,,,0,139044
120696,,,,0,139083
120706,,,,0,139101
120716,,,,0,139149
120726,,,,0,139165
120736,,,,0,139213
120746,,,,0,139246
120756,,,,0,139257
120706,,,,1,
120766,-0.004475863187046847,-0.016609035643769143,0.002774564743175917,0,
120770,-0.005605930522682323,-0.017514748942308866,0.0018706513949216241,0,
120773,-0.002839602205205849,-0.015933808523186155,0.0022189165633365593,0,
120777,-1.502441922540676e-05,-0.006973294158570731,0.006033286018714418,0,
120781,-0.0004615110586468907,0.005783372540008269,0.008206609737822529,0,
120785,-0.006141902215011319,0.012053268487198121,0.00666835876271607,0,
120789,-0.013401640291352934,0.006704113433373848,0.004381455789152805,0,
120766,,,,0,139298
120776,,,,0,139298
120786,,,,0,139331
120793,-0.014132056113661529,-0.005497515340946002,-0.002626697179193477,0,
120797,-0.01157753136320705,-0.017736263526412888,-0.015607700105242761,0,
120801,-0.010967432819264489,-0.025669621735931347,-0.026559100752751835,0,
120805,-0.007950920779733917,-0.025232090357734105,-0.023011397233897946,0,
120809,-0.0006618756508881551,-0.01406608662771447,-3.6442434948158464e-05,0,
120813,0.003985461424538594,0.0018754891670593743,0.025157080725905084,0,
120816,0.004213634238259045,0.005749969527140575,0.029779582247923708,0,
120820,0.00667217465119907,-0.008766991959581638,0.013078460973529271,0,
120824,0.01071418688616943,-0.02541986870354762,-0.004228368051005266,0,
120828,0.009868351197156677,-0.0296866275823513,-0.007851923973694164,0,
120796,,,,0,139326
120806,,,,0,139335
120816,,,,0,139330
120826,,,,0,139378
120832,0.0037382437167196025,-0.020265741488756817,-0.002409441803979645,0,
120836,-0.0020148338133281207,-0.005146644066676309,0.0013214295207611693,0,
120840,-0.002844968379952406,0.006708315220924188,-0.003001429359958202,0,
120844,-0.0011855990031220953,0.01008000820540289,-0.016287119055660465,0,
120848,-0.0012972389784394744,0.0028761975700550835,-0.029213132244026246,0,
120852,-0.0053054824116059995,-0.005912813292158425,-0.02782604267871433,0,
120836,,,,0,139386
120846,,,,0,139427
120856,-0.012510822256403986,-0.01105105557838515,-0.012507751805920314,0,
120859,-0.018729474342363828,-0.020442368082098206,-0.00018312523699115513,0,
120863,-0.023148728447107136,-0.03476116130488727,2.267224866514539e-05,0,
120867,-0.02525377418721142,-0.04537866784870692,-0.0020223104073732734,0,
120871,-0.023285567096835824,-0.04773150157021089,0.003772416232523418,0,
120875,-0.022335941660161174,-0.044662741496045655,0.016956056963156885,0,
120879,-0.024582509624873294,-0.04488762069058172,0.025394357771894444,0,
120883,-0.023005675806678116,-0.048678552376491435,0.023092186530889625,0,
120887,-0.014488543442228163,-0.03857877617295191,0.019099014236114764,0,
120891,-0.0034754287705979214,-0.011938182790684149,0.01407412756442647,0,
120856,,,,0,139461
120866,,,,0,139491
120876,,,,0,139526
120886,,,,0,139565
120895,0.0006291808706297974,0.005283085712803448,0.009033770511732458,0,
120899,-0.0009107144057193262,0.006944510370197499,0.010446403031089568,0,
120902,0.003749510814442192,0.005726672632784258,0.01209947770383879,0,
120906,0.010301886071498068,0.004027428217113105,0.011269373065363797,0,
120910,0.011616208603405287,0.0008289520810311757,0.01112041690637361,0,
120914,0.011619273452768253,-0.012317473187613004,0.008632114383406553,0,
120918,0.011649625010808462,-0.02884771539025488,0.0038908119259274954,0,
120922,0.011955317745666383,-0.03140463182874553,0.005468597209817877,0,
120926,0.01272506986397759,-0.026460602039653836,0.01745106868393545,0,
120930,0.013387963815882808,-0.02504026138308868,0.02757074116719327,0,
120934,0.014724266951871345,-0.02427409628696786,0.026055775125195996,0,
120896,,,,0,139600
120906,,,,0,139612
120916,,,,0,139645
120926,,,,0,139614
120938,0.01591220110554914,-0.019781713521642263,0.018366952931875707,0,
120941,0.014056137240464062,-0.008944610855222912,0.013030015128374761,0,
120945,0.008072753567783808,0.004952760713760274,0.013175025134161161,0,
120949,0.0016128958322959575,0.014721129342381012,0.01476911600945921,0,
120953,-0.0032964434187319203,0.017988169156080147,0.014641133937602802,0,
120936,,,,0,139549
120946,,,,0,139403
120957,-0.008159600769322095,0.013283521963945333,0.01436486666429071,0,
120961,-0.012428876267834621,0.004439233869770298,0.011682065645228001,0,
120965,-0.01745566095571205,-0.008287648175705264,0.007020612178092023,0,
120969,-0.02205521382764597,-0.02439585372261499,0.009822917749494037,0,
120973,-0.020274580405060028,-0.031120410857734537,0.019482290107553563,0,
120977,-0.01442820356539376,-0.024581931390863954,0.026274275686505366,0,
120981,-0.008870417255363527,-0.014666929796380845,0.024643726517049852,0,
120984,-0.003607043547572797,-0.009176272346365533,0.021064798403689522,0,
120988,0.00023983286313877805,-0.006135107841934495,0.02034476471497279,0,
120992,0.0020963757436008867,0.0009629901485115333,0.01512098538498624,0,
120956,,,,0,139174
120966,,,,0,138895
120976,,,,0,138659
120986,,,,0,138408
120996,0.004118199459286931,0.013388303788451683,0.009866179433640682,0,
121000,0.007438794531829829,0.028659325653785928,0.011107137911322312,0,
121004,0.009274574172787209,0.040785697682055755,0.01504517579932621,0,
121008,0.008235987160424285,0.042417784344720655,0.017406236274679465,0,
121012,0.006360354627255815,0.03675223514270254,0.01902976675593518,0,
120996,,,,0,138206
121006,,,,0,138043
121016,,,,0,137902
121016,0.00461597465112995,0.03337234795003852,0.024328174579795442,0,
121020,0.0037434288074904565,0.03436338251536464,0.032267500239683305,0,
121024,0.003543726103675149,0.029537641128900116,0.03728062570062926,0,
121027,0.001276197883583463,0.014881020229194686,0.03712557559224669,0,
121031,-0.002639606311532372,0.004424729592782395,0.03138736186711588,0,
121035,-0.004919904380780271,0.003951083838938718,0.02752979243010789,0,
121039,-0.003694056901881293,0.005527444579982443,0.03539569029443057,0,
121043,0.0013908207311330578,0.010966393832361643,0.046053119200701126,0,
121047,0.006002616651235582,0.022175519426863577,0.049544663961593655,0,
121051,0.0058901955658500205,0.02679909510250411,0.04703087810127721,0,
121055,0.003928258503296589,0.022869204645473484,0.041748873657454943,0,
121026,,,,0,137807
121036,,,,0,137744
121046,,,,0,137706
121056,,,,0,137671
121059,0.0037671584712861694,0.021537332042513846,0.03897891029024869,0,
121063,0.007355692538342451,0.02000032050243883,0.04155439646873871,0,
121066,0.012830499363613246,0.011490452519912875,0.04545378515287074,0,
121070,0.015351995626682324,-0.00013075585846511473,0.04540165849512265,0,
121074,0.014593806132012888,-0.01070526707520525,0.04400744466285078,0,
121066,,,,0,137668
121076,,,,0,137649
121078,0.012664397563818763,-0.008134681407544697,0.04057327169856875,0,
121082,0.008508680258059176,0.008254313627355181,0.02993670891870681,0,
121086,0.004452289444924706,0.023105557036762203,0.019617260492795302,0,
121090,0.0055470483932400505,0.037341821662702834,0.018327851432346748,0,
121094,0.008530950788051217,0.04989279052899809,0.02708964022258889,0,
121098,0.007819607006697149,0.049101919401216776,0.03639433892469687,0,
121102,0.0043564858440245935,0.03710999814885696,0.030664636940536644,0,
121106,0.002660374270090804,0.025439595833948836,0.01564678955439089,0,
121109,0.0037857993912837618,0.01859797409649877,0.006170552147602759,0,
121113,0.0039565530448655295,0.014297507319548597,0.0037843948761934476,0,
121086,,,,0,137645
121096,,,,0,137648
121106,,,,0,137670
121115,,,,0,137680
121117,0.00128448859031427,0.007260349513647402,0.003950909101902517,0,
121121,-0.0016383497815715131,0.0011746285739815399,0.002215740705223901,0,
121125,-0.0024037247445115595,0.0025642508402761166,0.00041959704770022643,0,
121129,0.0002148862567502574,0.00803820244281539,0.003612473688920842,0,
121133,0.0033269440437627695,0.010840986696664778,0.010670869733591687,0,
121137,0.0017367294390291388,0.005558720388281646,0.015417405506485293,0,
121141,-0.00407276455281913,-0.005565766595514887,0.015236979544062307,0,
121145,-0.009535055669392944,-0.012964545341980216,0.01333176911893369,0,
121149,-0.009549324249492175,-0.014121272360658743,0.01249583249481151,0,
121152,-0.004954590295985883,-0.011898854946760462,0.011341910725026216,0,
121156,-0.001337858199964903,-0.003692243331618439,0.008440357055226305,0,
121125,,,,0,137696
121135,,,,0,137696
121145,,,,0,137708
121155,,,,0,137732
121160,-0.0006205192626871359,0.0028946348167484537,0.003573403494297689,0,
121164,-0.002323140418375891,-0.0019277005290150306,0.002230418397034445,0,
121168,-0.006877815330091019,-0.014969594425034316,0.006537748901861068,0,
121172,-0.013468074566536425,-0.02719479573779715,0.0033221987752151128,0,
121176,-0.017464856232255688,-0.031393334609452594,-0.00458841192670012,0,
121165,,,,0,137781
121175,,,,0,137819
121180,-0.01633929078968599,-0.025911156282133696,-0.005860504549145135,0,
121184,-0.013149412874731592,-0.013996216920173055,-0.00556517480261437,0,
121188,-0.013905837266323107,-0.008625268402902009,-0.01024893516989614,0,
121192,-0.018865230805002797,-0.01798206633319266,-0.015263703933647704,0,
121195,-0.020345136663870944,-0.03244318637391164,-0.010357057036654543,0,
121199,-0.018036776935581256,-0.04022921990023587,-0.003367448422610997,0,
121203,-0.017007313189682627,-0.039186438403798984,-0.004400972946701082,0,
121207,-0.014851308491788284,-0.03179157136163946,-0.007930872113931842,0,
121211,-0.009368460425734582,-0.021627983954541463,-0.009070251167950766,0,
121215,-0.0036390889368940194,-0.008458874441013897,-0.008504639375595702,0,
121185,,,,0,137863
121195,,,,0,137912
121205,,,,0,137946
121215,,,,0,137970
121219,0.0013739284971016064,0.0076424796253857785,-0.008385787728637267,0,
121223,0.0053815258348473005,0.01925523857447642,-0.009553748847864807,0,
121227,0.008045545617765826,0.027540398178195424,-0.011242876344147834,0,
121231,0.010355618068316974,0.035380459423560495,-0.012664114956699973,0,
121234,0.011049574095805204,0.038536547153925405,-0.013914222844572416,0,
121238,0.009954821351306098,0.03763513499320981,-0.013485152647511461,0,
121225,,,,0,137975
121235,,,,0,137981
121242,0.008530361177620738,0.03384921804907082,-0.012633423414562056,0,
121246,0.006331669857731925,0.02852839815726327,-0.014556195072361777,0,
121250,0.003975791007599816,0.02112438705419395,-0.01804156423732073,0,
121254,0.0017108399458740653,0.012515185704619292,-0.01823693157754755,0,
121258,-0.002690459850289484,0.002237415419823474,-0.017281345727165193,0,
121262,-0.005726743992586769,-0.007653229863803013,-0.02330432672270419,0,
121266,-0.003877727638957995,-0.009971512660171378,-0.03333760720998036,0,
121270,-0.0009753010926877304,-0.010268293709943421,-0.03883038000846742,0,
121274,-0.0001488427894706934,-0.011459919238863137,-0.03777798399032456,0,
121277,-0.0006984623709798132,-0.00420432648232838,-0.03390730326985572,0,
121245,,,,0,137988
121255,,,,0,137983
121265,,,,0,137965
121275,,,,0,137968
121281,0.0012115891128388068,0.00960730044177982,-0.028935964848337548,0,
121285,0.004519450205815345,0.01451630933374437,-0.026481787924805045,0,
121289,0.0054581270936550075,0.012715288009499393,-0.028672457109300276,0,
121293,0.006537987129420553,0.01635821369745516,-0.030785995568832186,0,
121297,0.012284694453031486,0.019836970589199865,-0.030380597823808336,0,
121285,,,,0,137950
121295,,,,0,137947
121301,0.02438411772270188,0.019627919550464945,-0.026620014384000884,0,
121305,0.035257248278803166,0.018360874941678595,-0.023351398406889795,0,
121309,0.03556850054565319,0.015579196546063656,-0.024822356444076016,0,
121313,0.03028877045124201,0.01597578377606501,-0.027465429891473242,0,
121317,0.027480857681223103,0.01932993746596612,-0.02998563583902547,0,
121320,0.025149871727268458,0.01551462488952371,-0.03388974976300421,0,
121324,0.02109578075325469,0.006058282423315298,-0.03895659402884974,0,
121328,0.01549842008641189,0.005396852075875813,-0.04625295907103316,0,
121332,0.010379582505752993,0.010563403406785632,-0.0512990095841106,0,
121336,0.007286230600352828,0.010750944406879182,-0.05005673610370495,0,
121340,0.005694995922156498,0.007471329427838569,-0.046855471033619506,0,
121305,,,,0,137936
121315,,,,0,137934
121325,,,,0,137939
121335,,,,0,137945
121344,0.0071939379975445306,-0.0039116085191670535,-0.042121308306960314,0,
121348,0.007502472166130092,-0.018530930955011904,-0.03793572590779534,0,
121352,0.002775326104214715,-0.016064404794627674,-0.041114005914796165,0,
121356,-0.001616306184469729,-0.0007381134832100678,-0.042430959995179374,0,
121359,-0.0016314880883631089,0.01121413822755235,-0.03462434986457599,0,
121363,-0.0006348087882671605,0.01834686923644302,-0.028866131041057397,0,
121367,-0.0014377126634708137,0.017962174536994446,-0.02965878843168196,0,
121371,-0.0018935338451643302,0.007535237697830599,-0.030484239192875323,0,
121375,-0.00012489693376749322,-0.002074848187387346,-0.028795934675580143,0,
121379,0.003485225649045187,0.0026252982090002597,-0.028814455100248493,0,
121345,,,,0,137947
121355,,,,0,137974
121365,,,,0,137995
121375,,,,0,138019
121383,0.004229157113504578,0.01641125714162328,-0.031324780608376346,0,
121387,0.002388733689514644,0.01739830814787302,-0.03312929210512411,0,
121391,0.00452928014270626,7.302216207749623e-05,-0.03256351678008554,0,
121395,0.009429171077008691,-0.01976200800761685,-0.03093794590517185,0,
121399,0.011795412697619412,-0.032534445446795957,-0.03335410196429392,0,
121402,0.011077666553513832,-0.03385078291153354,-0.040671859514727904,0,
121385,,,,0,138038
121395,,,,0,138068
121406,0.011782130680149994,-0.020972272255753488,-0.046486891148127096,0,
121410,0.01579166310203539,-0.0070436919560896705,-0.0464933372883313,0,
121414,0.019140755126641817,-0.00160350105307705,-0.046247487342866156,0,
121418,0.019526477717196955,0.0012368297371851966,-0.04871774425533512,0,
121422,0.01881769671176914,0.004458461117677004,-0.04755014207072858,0,
121426,0.018726741396424162,0.007201913546015515,-0.042271334760743046,0,
121430,0.01736827327888457,0.005719363989456383,-0.0390301496861048,0,
121434,0.01333975208684779,-0.0062342404422981446,-0.03352226024442295,0,
121438,0.009310734760733741,-0.020494768105510985,-0.023350897572888024,0,
121442,0.0063041822489782184,-0.017008337206738666,-0.020371106163588365,0,
121405,,,,0,138085
121415,,,,0,138084
121425,,,,0,138099
121435,,,,0,138136
121445,0.003890644694609535,0.007234975566122515,-0.023607050703264104,0,
121449,0.002269932670210917,0.0284375725595285,-0.02487294418250699,0,
121453,0.001962615988714944,0.022115456049544235,-0.022040437467605117,0,
121457,0.00013213556668467685,0.0005496023505169312,-0.012627245065759907,0,
121461,-0.005494222781145752,-0.008694218380135954,-0.0010659474042516437,0,
121445,,,,0,138162
121455,,,,0,138207
121465,-0.007200916301015159,-0.005993155299956587,0.0025878851970713435,0,
121469,-0.001138436780465324,-0.004030101932860131,-0.0048024233558398854,0,
121473,0.006622734937367869,-0.0104103406790923,-0.01661657358870977,0,
121477,0.011099795877129282,-0.019562618634399787,-0.024726691234900428,0,
121481,0.01154799694158748,-0.01866547204354463,-0.025959410943343142,0,
121485,0.00823243161813858,-0.006991984402180407,-0.02088057575466315,0,
121488,0.003799875641765982,0.012483079887398496,-0.012755343798454333,0,
121492,0.0024927042009131872,0.026932462082064568,-0.008611697225287873,0,
121496,0.0031775302522581983,0.02644675199259927,-0.012306423774695346,0,
121500,0.0031186954660848976,0.01885751094989896,-0.020673286368604937,0,
121504,0.0027774795083338466,0.012819782584602812,-0.0287000605337904,0,
121465,,,,0,138220
121475,,,,0,138245
121485,,,,0,138276
121495,,,,0,138303
121508,0.001883086028278469,0.01831502446212019,-0.03118561276575152,0,
121512,0.0007313387519873871,0.031294246819228544,-0.02776931049347625,0,
121516,-0.0015497052225211805,0.03500455140667613,-0.024239443728628907,0,
121520,-0.0062844477001036125,0.02677948550704956,-0.020457726060026604,0,
121524,-0.008611674481861509,0.01733571686353308,-0.012237461443513564,0,
121505,,,,0,138291
121515,,,,0,138328
121527,-0.006292559163779909,0.01562599498732853,-0.005967539951743983,0,
121531,-0.00685351357385533,0.017535483964174592,-0.012141018969539286,0,
121535,-0.014434875175211359,0.01013129981041816,-0.02052636643813502,0,
121539,-0.020503410087226226,-0.006710240900323683,-0.0149492300724057,0,
121543,-0.018750641369205234,-0.01927004116853448,-0.0027191812323071884,0,
121547,-0.014104041480240248,-0.0187377822360717,0.0013285784405141499,0,
121551,-0.010735007174188294,-0.010725379418668801,-0.0036413179707908694,0,
121555,-0.007241103403013649,-0.004038292923888243,-0.010072776749180973,0,
121559,-0.004634356984738797,-0.001971073752459862,-0.011308367494272609,0,
121563,-0.004886924938366399,-0.005644188211833434,-0.004498104598081004,0,
121525,,,,0,138354
121535,,,,0,138392
121545,,,,0,138451
121555,,,,0,138496
121565,,,,0,138526
121567,-0.004719416415920885,-0.007669127188524527,0.004974409515797307,0,
121570,-0.0035376203075211388,-0.0045009597946470414,0.0038837986775594746,0,
121574,-0.007695283012166487,-0.006410533592499323,-0.011127905241311159,0,
121578,-0.014135129290699822,-0.013543140257556985,-0.02396934763497449,0,
121582,-0.01307517554859794,-0.011307013385374987,-0.02203062850537521,0,
121586,-0.00844261997659379,-0.0011225929052094408,-0.011309528913947431,0,
121590,-0.006913794412893082,0.005299313864103983,-0.0037295489809576476,0,
121594,-0.00694768217349484,0.007188745342654901,-0.006726753924544582,0,
121598,-0.006238278052347446,0.0054479616593563485,-0.012482140124574492,0,
121602,-0.005835471829338856,-0.001976524444946559,-0.007776430060618983,0,
121575,,,,0,138548
121585,,,,0,138593
121595,,,,0,138623
121605,,,,0,138661
121606,-0.008411185184048375,-0.011891774347633444,-0.001191612368883016,0,
121610,-0.011622467420088878,-0.014342118664799397,-0.0009764628020829669,0,
121613,-0.01244041989666056,-0.009263429958699998,0.0010320829019007383,0,
121617,-0.012097979023986238,-0.004374825394747539,0.0058330173788879724,0,
121621,-0.012226444107848344,-0.005103704699139122,0.006487462332134486,0,
121625,-0.012189056217079441,-0.0130307734516375,0.0039039813851697025,0,
121615,,,,0,138684
121625,,,,0,138707
121629,-0.011362044853880704,-0.01961633167050625,0.001519817846239474,0,
121633,-0.01054922179414075,-0.017849115235592627,0.0006301407187579988,0,
121637,-0.009747728190080185,-0.011191689356665258,0.0027284825309723815,0,
121641,-0.010174557451345656,-0.007953084842506453,0.004640630626131209,0,
121645,-0.012479339132313916,-0.011301450751880715,0.003541503493285192,0,
121649,-0.015604722212803068,-0.02004350002236599,0.0014842848004630038,0,
121652,-0.01713017865511135,-0.029978065514526087,0.0005916392466654985,0,
121656,-0.012676982221465849,-0.028910804821408842,0.0028187396464953995,0,
121660,-0.006012661540685138,-0.016272727009473797,0.007314001511385226,0,
121664,-0.0065472601738665315,-0.0074514075663381085,0.007806655364393872,0,
121635,,,,0,138734
121645,,,,0,138792
121655,,,,0,138806
121665,,,,0,138830
121668,-0.010751088425854927,-0.004016403513702471,0.004472619553202467,0,
121672,-0.010245436329000102,0.0019394836571096086,0.002621973239749026,0,
121676,-0.0065349548946326275,0.006853643218662775,0.0026108515444395464,0,
121680,-0.0025088769365447794,0.008227495303091192,0.003023706429566869,0,
121684,0.0009757373773735534,0.009748518896386837,-0.0015034509105758542,0,
121675,,,,0,138840
121685,,,,0,138871
121688,0.002843193305812952,0.011993372789315337,-0.008649081235938938,0,
121692,0.004720436495767921,0.005167717385655912,-0.0066967590854386805,0,
121695,0.006969331288608882,-0.010020591992875083,0.0001009335607548012,0,
121699,0.006443912921068162,-0.012498601668003317,0.004030456485771328,0,
121703,0.004081698051444316,0.0002453577563934495,0.006432444693146827,0,
121707,0.003069789353338792,0.012727584171217998,0.006977446160344292,0,
121711,0.002112121232398456,0.017009475965389154,0.0058421274191801376,0,
121715,0.0013761518778178106,0.015143334556556365,0.004964945370683982,0,
121719,0.0022102574430954425,0.014173844176135209,0.005664341342342644,0,
121723,0.004062156042834997,0.012365514834422164,0.008364833992973941,0,
121695,,,,0,138885
121705,,,,0,138901
121715,,,,0,138917
121725,,,,0,138937
121727,0.004805374143861396,0.008737416888160432,0.010447028143410697,0,
121731,0.002605582759370617,0.009576775160414996,0.007859844353238526,0,
121735,0.0005988021245915132,0.008502276188322,0.003113969884543988,0,
121738,0.0006439254817113271,0.004003954108129815,0.0005616987356458492,0,
121742,0.0012972372696601342,0.0066997704605906705,-0.0007459920491241223,0,
121746,0.0015786402110237185,0.017686156306940592,-0.002625642145487911,0,
121735,,,,0,138948
121745,,,,0,138960
121750,0.0005599894258326854,0.026136592034311956,-0.004211045994684137,0,
121754,-0.000707728533848706,0.020989040066727416,-0.004320367153083121,0,
121758,0.0015244517278246716,0.01519508439263717,-0.003418827509839517,0,
121762,0.004922500466040258,0.022361507250011403,-0.004089237327089379,0,
121766,0.0049858551722421485,0.027400118707964438,-0.012706135269891422,0,
121770,0.004128117576179369,0.024192154024790025,-0.028927860374928227,0,
121774,0.005617293534415313,0.016184473941412314,-0.045591972578566425,0,
121778,0.009258690318370566,-0.0004402380739212397,-0.048824862427628096,0,
121781,0.012076266803919045,-0.01869196872183254,-0.024646824581661758,0,
121785,0.01292719384223584,-0.02473060077622602,0.009911922448925414,0,
121755,,,,0,138977
121765,,,,0,138997
121774,,,,0,139005
121784,,,,0,139031
121755,,,,1,
121789,0.012825862682733002,-0.01953462238654824,0.02574791179643937,0,
121793,0.013059744578971078,-0.016300310160186626,0.012242532052235716,0,
121797,0.01542884725740068,-0.012445408914615985,-0.015094081938662046,0,
121801,0.018411127892083545,-0.007231574608898228,-0.0266114820571553,0,
121805,0.016631902801959808,-0.014709744751846277,-0.015952803149626604,0,
121809,0.010486837013687689,-0.029298947021494826,0.0003264515205353147,0,
121813,0.00839248806027415,-0.034833729565306726,0.0059481660391638436,0,
121817,0.013319462377302638,-0.02702667877121545,0.00017419390278872182,0,
121820,0.018801998558954813,-0.010564763882447092,-0.0031218021843500143,0,
121824,0.020513346214354966,0.005778137430160868,-0.0004098514970673761,0,
121828,0.019874912289416957,0.012562882134067532,-0.001583025245189662,0,
121794,,,,0,139063
121804,,,,0,139091
121814,,,,0,139117
121824,,,,0,139135
121832,0.016605875449216212,0.0035010632789376217,-0.00684157423371734,0,
121836,0.011884133732905089,-0.009797847481213928,-0.009864546592933454,0,
121840,0.009823976389245703,-0.014573457113149058,-0.008695012822322934,0,
121844,0.009905274113088613,-0.014221085734982708,-0.003405346162846795,0,
121848,0.009537485633166143,-0.011843306792869157,0.00450163241553278,0,
121834,,,,0,139173
121844,,,,0,139170
121852,0.007797880904672039,-0.008945541353114983,0.010043897689979736,0,
121856,0.0062646433441150284,-0.008190045929362899,0.009597799883073466,0,
121860,0.006167087756036693,-0.01237824558683931,0.006182488531537161,0,
121863,0.007902313918384252,-0.01797870925350864,-0.0018000936770016518,0,
121867,0.009221862003850112,-0.011800038156857262,-0.011709764309091847,0,
121871,0.00557263492396165,0.006308444733629237,-0.010301081463567813,0,
121875,-0.00018767875138026024,0.021631463146075003,-0.0004035213148531336,0,
121879,-0.0035612084733651628,0.027717494098562945,0.0037210361561786365,0,
121883,-0.005477013958224641,0.027517060835342555,0.0017489198494012037,0,
121887,-0.0074797791084876275,0.02005492012512544,0.0001067621427194021,0,
121891,-0.01060800933291961,0.0035755649387585464,0.00127333679598296,0,
121854,,,,0,139191
121864,,,,0,139219
121874,,,,0,139251
121884,,,,0,139270
121895,-0.014039791064120899,-0.009660520092563463,0.005257102807012748,0,
121899,-0.014557562545582936,-0.010572622700899093,0.007836782443012669,0,
121903,-0.012094376340918589,-0.009649582425283132,0.00505408763332868,0,
121906,-0.009946909191570263,-0.01261872146424059,0.0003841884421440789,0,
121910,-0.00892378889671197,-0.009760379892259863,-0.0007880631461134602,0,
121894,,,,0,139286
121904,,,,0,139277
121914,-0.007358983551010834,-0.0014804750383956566,0.0008659835342013644,0,
121918,-0.006448663114577258,0.0029044728722369406,0.002886736941973028,0,
121922,-0.0062254108993540225,0.008504621200665419,0.001563569230016909,0,
121926,-0.0038856086780442167,0.016633542049350858,-0.002246147027925305,0,
121930,-0.0011249308054415152,0.019163939415939524,-0.0013184208305494771,0,
121934,-0.0015843952352551094,0.0174899875900012,0.002414571341410182,0,
121938,-0.003548058201144455,0.01731178706855685,0.0040552116449008024,0,
121942,-0.0014719946099085446,0.016103375711256973,0.003156907287612948,0,
121945,0.002972852118878766,0.01020244334209508,0.0006621661279912483,0,
121949,0.0015282006267871573,0.008279845714779466,-0.0004287633808377489,0,
121914,,,,0,139186
121924,,,,0,138998
121934,,,,0,138778
121944,,,,0,138536
121953,-0.0034285437832182186,0.012787832548005973,-0.002444367057752722,0,
121957,-0.0035712704008861174,0.017891543106471897,-0.0070053092659195515,0,
121961,3.3487010260291328e-06,0.0279161724459267,-0.006510678777887274,0,
121965,0.0018482877410530563,0.03523503644371129,-0.002600871593632037,0,
121969,0.0010833329652698565,0.02991245181111868,-0.0020125845144731147,0,
121973,0.0009854321467593907,0.026675341075598435,-0.0020460110011361055,0,
121954,,,,0,138301
121964,,,,0,138113
121977,0.0019887990755237395,0.031801896575907485,-0.0008391301986329369,0,
121981,0.0020799034929892546,0.03287280283329119,0.0018106580517581738,0,
121985,0.0004522164216455016,0.026743437089691735,0.004832884930909193,0,
121988,-0.0010516479944198132,0.02456855886343101,0.004517144610486634,0,
121992,0.0011861778319491867,0.024917667884091443,0.0014389970571895838,0,
121996,0.004778262935313249,0.023063322840187972,1.32545841406706e-05,0,
122000,0.0049958387103858914,0.030960351153299648,0.000637126450468678,0,
122004,0.0011771672108207287,0.03923117530345799,0.0009066891489979134,0,
122008,-0.0026802955843465703,0.03625440351882192,-0.00040861816958753794,0,
122012,-0.0014400711887020412,0.03626676347381741,-0.0018924293572540607,0,
121974,,,,0,137952
121984,,,,0,137826
121994,,,,0,137700
122004,,,,0,137603
122016,0.0010035235520119423,0.03600501837239456,-0.0007031357304462249,0,
122020,0.0010012244687455096,0.029991771039070247,0.002822301144765893,0,
122024,0.0007008583011258729,0.027892584990298452,0.00665403394624739,0,
122028,-0.0008337387152722586,0.024157778367561278,0.011236318900408548,0,
122031,-0.004571267992703243,0.013511235529446886,0.015804708182316524,0,
122035,-0.006481078041256749,0.003123002628121263,0.017618869850374308,0,
122039,-0.004730813473272644,-0.0036759500205136852,0.016399843673074205,0,
122043,-0.005911606411226233,-0.010040922483332437,0.01391239605101216,0,
122047,-0.009551577422688862,-0.012855044409484151,0.011746970779252575,0,
122051,-0.009679015594421081,-0.008597995203613706,0.007467213262134231,0,
122014,,,,0,137560
122024,,,,0,137497
122034,,,,0,137493
122044,,,,0,137488
122054,,,,0,137512
122055,-0.00858127497714134,-0.0024349327522195097,0.0024070653642493944,0,
122059,-0.0073432463360019185,0.0014830804741596815,0.0043960049067024165,0,
122063,-0.006048741782104905,0.0023589782209025856,0.014582879972380197,0,
122067,-0.007144131217899585,0.0020300322654827063,0.02499877392844349,0,
122071,-0.00885804914702537,-0.00037753697181974744,0.025480241312676843,0,
122064,,,,0,137525
122074,,,,0,137528
122074,-0.007061994041631325,-0.0024763942208894107,0.015531558475833762,0,
122078,-0.00519794900533177,-0.00044595059000585024,0.0054400231686880796,0,
122082,-0.006147153565278618,0.003261281437534791,0.0011917888270628896,0,
122086,-0.005558797804190996,0.007560390558164709,-0.0002665475861318989,0,
122090,-0.004332903890457707,0.009697842060191864,-0.002990299877295849,0,
122094,-0.0025145840650260265,0.008854167402934987,-0.005941574421057583,0,
122098,0.001893463939873996,0.004764619329001185,-0.00681458044010258,0,
122102,0.006102847157337665,-0.005231522955991608,-0.006312141604956162,0,
122106,0.005799499066643787,-0.013215825146969173,-0.0041906851362148445,0,
122110,0.0001289734071032722,-0.01136785213236724,0.000987189472601513,0,
122113,-0.004491288140425209,-0.004355280901578773,0.006828056736195243,0,
122084,,,,0,137556
122094,,,,0,137546
122104,,,,0,137546
122114,,,,0,137559
122117,-0.0027914036375253914,0.0031237619465209754,0.009117763243299243,0,
122121,0.0013093604510996393,0.01128987478834853,0.008199227872776188,0,
122125,0.0032528715078158355,0.009666060637797624,0.008433606843430252,0,
122129,0.004024145129764012,-0.0001215564714569517,0.008901427502240461,0,
122133,0.006185989514200574,-0.00128806871710907,0.0051133692163539135,0,
122124,,,,0,137556
122134,,,,0,137595
122137,0.008569220729966909,-0.008544277726211913,0.0013843091126671259,0,
122141,0.006518740729444472,-0.023805602946747495,0.0027039819199441706,0,
122145,0.002590992091584199,-0.030362912285464283,0.006369363581195997,0,
122149,0.0010454770227062982,-0.03204568055837553,0.008183681642376262,0,
122153,0.0006856598024574945,-0.021093264170547243,0.007221271537589724,0,
122156,0.00112531657561743,0.0010331224744692946,0.0064233354530427444,0,
122160,0.0018450942814063342,0.01694102457157287,0.005805925076340923,0,
122164,0.0024094783110428786,0.027802663593388566,0.0036915656315027467,0,
122168,0.0031739373261003845,0.026875663532452077,0.0023005493180776604,0,
122172,0.004534854973188396,0.0033793862574409417,0.002088817195508963,0,
122144,,,,0,137620
122154,,,,0,137677
122164,,,,0,137730
122174,,,,0,137740
122176,0.005785893595647185,-0.024172875491331514,0.001298042186918702,0,
122180,0.005142896847678768,-0.04163410205230944,0.0007965555614458109,0,
122184,0.004045987961696862,-0.048841390243720806,0.00040685318616245914,0,
122188,0.003752562175537655,-0.038079876917280764,-0.0012070125732603076,0,
122192,0.004773680375469325,-0.016513212737159666,-0.0038190789083760723,0,
122196,0.006323393737196037,-0.0002512440030759677,-0.004913819399045255,0,
122184,,,,0,137771
122194,,,,0,137801
122199,0.004053394727933313,0.009933070836387614,-0.0031594689272011756,0,
122203,0.0005275889741542805,0.005296281488444965,-0.001121608460600998,0,
122207,0.00043113629112323526,-0.011255049892404223,6.594661614714448e-05,0,
122211,0.0028584794388006873,-0.017906788642401583,0.00017181016343420508,0,
122215,0.00497192615859976,-0.015077307240431992,0.0001016741335107818,0,
122219,0.0032577993970420716,-0.008610120835074841,0.001461904972150957,0,
122223,0.00015203349017389733,0.0010293787003963217,0.002080082315236431,0,
122227,-4.482472510169977e-05,0.015842539569216996,0.002652897418905259,0,
122231,0.0007483206137862686,0.03026322753258537,0.005059497397120694,0,
122235,-0.0005917594302777829,0.02913206396780188,0.005007440585531653,0,
122204,,,,0,137805
122214,,,,0,137833
122224,,,,0,137846
122234,,,,0,137847
122238,-0.0029931484761076543,0.013825467110753387,0.0023867858109362927,0,
122242,-0.004116464280648491,-0.0008694578190939772,0.0012808419992256515,0,
122246,-0.0038574003551372638,-0.0037530316793108476,0.0007756323182435687,0,
122250,-0.0025017913387883617,0.0009075123189181689,0.0003490661003539841,0,
122254,-0.0005653763224736652,0.003882386273267535,0.000463679835448233,0,
122258,0.000506628641588458,0.008637037016875126,0.00038904654134258587,0,
122262,0.00023504156727716108,0.01568362630237985,0.0014102447854940359,0,
122266,0.00034527503390002767,0.010061176407237582,0.004979073330454387,0,
122270,0.0009495114408989425,-0.0066293315573249245,0.008207964426250602,0,
122274,-0.00020302924175075177,-0.008639387414724364,0.005045896073451572,0,
122278,-0.0025255552621987754,0.005334032162292779,-0.0022163250213163843,0,
122244,,,,0,137851
122254,,,,0,137836
122264,,,,0,137845
122274,,,,0,137847
122281,-0.0025412203156497393,0.007432287233015256,-0.005431623939380098,0,
122285,4.539392212410398e-05,-0.005440024291962775,-0.004591038568578454,0,
122289,0.0007017152007104954,-0.007688982645870368,-0.003239945021120072,0,
122293,-0.0006316638170843492,0.006253884452418923,-0.0011048969612862947,0,
122297,2.562008102835467e-05,0.024128079538246805,0.0017468753224558486,0,
122284,,,,0,137862
122294,,,,0,137871
122301,0.0015029263342305477,0.03604728286615222,0.004268421204170508,0,
122305,0.001085341048583377,0.0354399027640806,0.0062106748641045095,0,
122309,-0.00027364247332339886,0.026082032161032664,0.006375522827004015,0,
122313,-0.0007626271929236372,0.01848027395231089,0.005725266668763246,0,
122317,-0.000761314754888498,0.01804892196493979,0.0061930605161721886,0,
122321,-0.0020169406759973363,0.017752704253131135,0.006654811880451611,0,
122324,-0.004628896436487229,0.008824917997483084,0.005992326524987213,0,
122328,-0.007146901003912021,-0.0015269573706366835,0.005237948276472254,0,
122332,-0.0081650126627405,-0.0034048716032306636,0.0062618832147113,0,
122336,-0.006464686362347871,0.0013841747293383833,0.006772711919147717,0,
122304,,,,0,137852
122314,,,,0,137882
122324,,,,0,137882
122334,,,,0,137915
122340,-0.0032474337742683934,0.00660993042321234,0.004368819160403298,0,
122344,-0.0009535941361392686,0.006974208847138286,0.0024131301300826524,0,
122348,-0.0003325939950600265,0.007444710337289884,0.0032984471968643125,0,
122352,-0.0003534595663334805,0.011963108111875176,0.006138804451568058,0,
122356,-0.0009569271689232606,0.012408231491829902,0.0059790997189754225,0,
122360,-0.0015303803768980107,0.012024045752422108,0.0007353358164846058,0,
122344,,,,0,137945
122354,,,,0,137973
122364,0.00017228746199304812,0.01058234081840137,-0.0019440582611005564,0,
122367,0.0021585577455314198,-0.0005798510780072874,0.0004604808787418979,0,
122371,0.004167452414034822,-0.00886879230641524,0.0016113413996241277,0,
122375,0.004817756699661779,-0.007837857682345906,0.0029089901096738258,0,
122379,0.0017043445164984794,-0.011488746680376583,0.008811486859012452,0,
122383,-0.0005372463705763941,-0.020189974990603154,0.012126063796250808,0,
122387,-0.0011654525714870356,-0.017470513138240662,0.008954428442921575,0,
122391,-0.0027769878094391354,-0.010174842420899388,0.003973463664454585,0,
122395,-0.005657632943708579,-0.01281345038758408,-0.00020585593206270958,0,
122399,-0.007506391815783275,-0.013660724130331037,-0.0006055685216041495,0,
122364,,,,0,137985
122374,,,,0,138013
122384,,,,0,138040
122394,,,,0,138066
122403,-0.006377452967159414,-0.003981030907053373,0.004670028588422415,0,
122406,-0.004508706287762787,0.007008836327308199,0.009373090886365398,0,
122410,-0.0034243132743764226,0.008031736080862384,0.00805305486362276,0,
122414,-0.0015448455939052197,0.00614778811542438,0.005437094902376677,0,
122418,0.0018153416136943434,0.006263411590965884,0.006371844774578833,0,
122404,,,,0,138090
122414,,,,0,138118
122422,0.00245417647729107,-0.002306197246725983,0.008426775086345623,0,
122426,-0.001856248053955789,-0.01408486493458172,0.008516966691438949,0,
122430,-0.0050955659241008755,-0.01891530712120426,0.008522026119348297,0,
122434,-0.003326413259624905,-0.016185219050436128,0.008527600515259526,0,
122438,-0.0004253713700432815,-0.009285207553944907,0.0077273872931288845,0,
122442,-0.0037038098639576855,-0.008443005440673002,0.0073285623552834245,0,
122446,-0.009778335066587207,-0.012531108262022528,0.007887896024062618,0,
122449,-0.007906621810958248,-0.011379458238316431,0.00852181128092161,0,
122453,-0.0015280992645636537,-0.013759587450314914,0.008850954568588032,0,
122457,0.0007996527345689453,-0.021517300863472588,0.009000987601135324,0,
122461,0.0005128777584765265,-0.023529768817291075,0.00854395659921156,0,
122424,,,,0,138119
122433,,,,0,138130
122443,,,,0,138190
122453,,,,0,138182
122465,0.0023092198222680604,-0.030539325339582035,0.009128029204177601,0,
122469,0.0031014231475572362,-0.041035406399891894,0.012096727567966786,0,
122473,-0.0007027089247468865,-0.03980321622793914,0.013755916569347743,0,
122477,-0.0042375559733868196,-0.03163005342916003,0.010520089495468982,0,
122481,-0.0032605786728431285,-0.021504563009617783,0.00804241786609114,0,
122485,-0.0015118160691247606,-0.010210039476428623,0.010783102464869021,0,
122489,-0.0032776735003073876,-0.003158797372042166,0.01354101097022714,0,
122492,-0.006163166321917712,-0.003252817820344589,0.012117305289140068,0,
122496,-0.006586691738763917,-0.005790112414149284,0.00882084850461487,0,
122500,-0.008163054501291511,-0.01034915772638767,0.007058751620910575,0,
122463,,,,0,138211
122473,,,,0,138230
122483,,,,0,138277
122493,,,,0,138275
122504,-0.012335533727510395,-0.01666228942943082,0.005575283110563517,0,
122508,-0.011234414095832479,-0.016326917631384052,0.003454543784961711,0,
122512,-0.006263927848319972,-0.009248987035254785,0.004331843607976393,0,
122516,-0.004946457207780197,-0.0028098773667726284,0.007909399292432673,0,
122520,-0.0033707973811950565,-0.008842423414114453,0.01052769503988571,0,
122503,,,,0,138295
122513,,,,0,138311
122524,0.0016619290865612646,-0.02874550314931046,0.011146849013025512,0,
122528,0.006485102028068734,-0.04271315968712042,0.010305006037087477,0,
122531,0.005192653266682501,-0.039487123859823114,0.008882246401547611,0,
122535,-0.0009605659118937515,-0.01963366019967383,0.007337404121380092,0,
122539,-0.0018727369084406975,0.006768627800771476,0.007425869279545555,0,
122543,0.0011948070768543761,0.02088987905469697,0.008440089490638236,0,
122547,0.0012125684153552196,0.021095292835571655,0.008930600426791058,0,
122551,0.0023893286511839085,0.011738627877856622,0.009864925604927882,0,
122555,0.0049417275771287406,-0.005976130492785892,0.010054920570645776,0,
122559,0.00019372287057661808,-0.01834328120803308,0.010337772420450836,0,
122563,-0.004980945483408439,-0.010560453055977082,0.011067826647659373,0,
122523,,,,0,138319
122533,,,,0,138328
122543,,,,0,138336
122553,,,,0,138359
122563,,,,0,138396
122567,-0.0021697556215296565,0.008083759286819259,0.010406361215836962,0,
122571,0.0001980297742071313,0.014167624091734776,0.009845068548907238,0,
122574,-0.0020967922279326867,0.007429348575542782,0.010830487019793972,0,
122578,-0.0021460788351032045,-0.0025783286910354697,0.012746964519109505,0,
122582,0.00026816871181478685,-0.012544633246538428,0.013719164775938875,0,
122573,,,,0,138401
122583,,,,0,138436
122586,-0.002677597423004996,-0.014886312288813652,0.011599284110594688,0,
122590,-0.006712214381559778,-0.008865489735043308,0.009147968175004656,0,
122594,-0.0023244293275899164,-0.004479619182521155,0.008995270716246617,0,
122598,0.0034254402198384826,-0.008770715006964469,0.008805392957228209,0,
122602,0.0020631605864338542,-0.014305254506250087,0.009615477388483118,0,
122606,-0.0007441207117060422,-0.01105021143750129,0.01139196272516893,0,
122610,-0.0007916241836479765,0.0013298976179512145,0.010444253754372607,0,
122614,0.0002956367284238093,0.01209814058530334,0.008025460919849903,0,
122617,0.0015718923167101773,0.005339212586237707,0.0077226164902802485,0,
122621,-0.0012022708927535986,-0.013582875936768435,0.010566204176922195,0,
122593,,,,0,138457
122603,,,,0,138488
122613,,,,0,138491
122623,,,,0,138514
122593,,,,1,
122625,-0.007191236853597238,-0.02113990946633848,0.012296705988443346,0,
122629,-0.0067934059233816235,-0.014865571754274054,0.00849876016418652,0,
122633,-0.0019330988086710965,-0.006333666991270359,0.0034888509247844035,0,
122637,0.0006750074231277603,0.0033323640526741194,0.003377959773014666,0,
122641,0.004440313012552544,0.007449666514991904,0.006058420275703663,0,
122645,0.00925177384957454,-0.005245747663476408,0.006654794739552938,0,
122633,,,,0,138502
122643,,,,0,138512
122649,0.007944561325528454,-0.020346217906494157,0.004929661713322875,0,
122653,0.002934666186392376,-0.024565695571572288,0.003482901492995627,0,
122657,4.289282716241072e-05,-0.025201385301047985,0.0038905544234922873,0,
122660,-0.001153176050322391,-0.016064721353931333,0.007170234045445006,0,
122664,0.0008631207538135621,-0.0018108537945238368,0.011343145090207535,0,
122668,0.00458783127013529,-0.003903050548224485,0.01152732739094356,0,
122672,0.004959291997268411,-0.014527546534071067,0.011659084842687767,0,
122676,0.0005058517550882158,-0.010374240272504665,0.013791734043069076,0,
122680,-0.0034847212830860785,0.0048308868541764305,0.0121903316799849,0,
122684,-0.0026668265523900336,0.01582710030873935,0.009158432635106156,0,
122653,,,,0,138549
122663,,,,0,138573
122673,,,,0,138596
122683,,,,0,138623
122688,-0.0015182851247945717,0.01822408783814966,0.007419826536533336,0,
122692,-0.0017502639532057662,0.012207749547098246,0.005474507286673758,0,
122696,-0.0010361195486119357,0.004352195840705786,0.004523020831093405,0,
122699,-0.002588726997864943,0.0021555129873926937,0.0006808612636115541,0,
122703,-0.007284590544591851,0.006211617603537167,-0.011539279545560277,0,
122707,-0.00916635197293425,0.007792524646777821,-0.024615523373806403,0,
122711,-0.009487737039505673,-0.002638277202976713,-0.02366778499439748,0,
122715,-0.008021345303184213,-0.019675564737472673,-0.003525629124544738,0,
122719,-0.00026714783687609156,-0.032061845288602786,0.026142398861905863,0,
122723,0.005991989493367322,-0.03868501211577691,0.04481340559991584,0,
122693,,,,0,138642
122703,,,,0,138678
122713,,,,0,138683
122723,,,,0,138716
122727,0.005900320500992762,-0.03273247664628576,0.035189210738597904,0,
122731,0.005370514475565691,-0.01557683701949708,0.005280674985122219,0,
122735,0.005888881938817425,-0.007012505900535704,-0.016481129273631906,0,
122739,0.0021187304816679964,-0.006381220143505395,-0.014393683592993589,0,
122742,-0.0034481882291437227,-0.0027125221737138716,-0.00037766290574672845,0,
122746,-0.0026597465479439864,0.009094325401179049,0.007606083076835607,0,
122733,,,,0,138716
122743,,,,0,138730
122750,0.004027832757881766,0.02229235904327931,0.004952550772440362,0,
122754,0.010384239242203108,0.015091028290738162,3.053107551806433e-05,0,
122758,0.012524858012686102,-0.0065870760960509145,0.0025807043523411732,0,
122762,0.011222217017180403,-0.018385212573267307,0.010837691824811285,0,
122766,0.008056860696313173,-0.023244784001382968,0.014390580277242687,0,
122770,0.005390638715500495,-0.031422867923661,0.008220828497243815,0,
122774,0.004099798252779729,-0.028710924615307665,-0.0003584896737159615,0,
122778,0.0024692654011252424,-0.005383433390969916,-0.001462108063771228,0,
122782,-0.0012354625500566874,0.014605286224755876,0.004372352170369909,0,
122785,-0.005280651946472981,0.01745125543492554,0.01199544727248189,0,
122753,,,,0,138742
122763,,,,0,138746
122773,,,,0,138774
122783,,,,0,138795
122789,-0.0047145707527624925,0.016403319425936758,0.019040635233153635,0,
122793,-0.001266013560368373,0.0157270825032918,0.020421040604230223,0,
122797,-0.0005058331361642576,0.011890117571611736,0.01489375578367344,0,
122801,-0.006611213379316583,0.0030759756296161456,0.009946208744912283,0,
122805,-0.015475113277502284,-0.007620132533804558,0.008776270550859167,0,
122793,,,,0,138848
122803,,,,0,138866
122809,-0.015541813186730091,-0.013792142802892204,0.007086724224995317,0,
122813,-0.009876412719105332,-0.01602163374158927,0.004143193608894508,0,
122817,-0.008149061160682702,-0.014552303409300027,0.004017953529159846,0,
122821,-0.00847264460936159,-0.00997616652156541,0.009781876473695189,0,
122824,-0.0072914796775611634,-0.0008532916811105906,0.017912869016514565,0,
122828,-0.006964201896530464,0.010967283125741467,0.02048306851251841,0,
122832,-0.007823656596385509,0.011831015562805192,0.016890475544885347,0,
122836,-0.006881489892880732,0.002851979121162529,0.010913978308820071,0,
122840,-0.0063167717627243825,-0.005404724426579577,0.0066992226975689795,0,
122844,-0.009042299684364985,-0.011189092280602608,0.007301969087074978,0,
122848,-0.012646885859309176,-0.015462306054395025,0.007122362118297948,0,
122813,,,,0,138909
122823,,,,0,138942
122833,,,,0,138925
122843,,,,0,138894
122852,-0.01398842642479825,-0.02050805832130509,0.0049215780747776106,0,
122856,-0.012028937316892807,-0.021371774791675957,0.004838579581551872,0,
122860,-0.007286208348554646,-0.013468316158240068,0.002684059404270578,0,
122864,-0.0021956693711342457,-0.0014270357948884538,-0.001678079854691733,0,
122867,0.0006288963060293584,0.009160625020260493,-0.0028854583372279474,0,
122853,,,,0,138799
122863,,,,0,138642
122871,0.0012269892367368085,0.016520881084487904,-0.002032710978936786,0,
122875,0.000504011403648752,0.021297198757880942,-0.002034718592760082,0,
122879,-0.0012556466018042167,0.020301224591711353,-0.0018197741446910054,0,
122883,-0.0029859758033176087,0.015127355177944057,0.0019109503156760077,0,
122887,-0.002661339264569129,0.011214394933050986,0.007784409541571308,0,
122891,-0.0018290104923659456,0.008588469858019199,0.008057465826595056,0,
122895,-0.0015442192135950439,0.008508042768785806,0.003577988894624212,0,
122899,0.0011050520872044611,0.014510112251400642,0.0018227551735472691,0,
122903,0.004375782838878628,0.0262990685556983,0.0012235670129590315,0,
122907,0.005536387583318758,0.03526027793919484,3.000922491863678e-05,0,
122873,,,,0,138436
122883,,,,0,138226
122893,,,,0,138018
122903,,,,0,137841
122910,0.003909315718997997,0.029654619465998344,0.003931204989635867,0,
122914,0.0013531516035623081,0.01639179386475087,0.010031215335134402,0,
122918,0.001941045303504474,0.01511042701293075,0.008882024460890703,0,
122922,0.004267497470290094,0.022800071482855788,0.0029008617784799795,0,
122926,0.00552231267555181,0.017573071784203087,-0.0010205133380164488,0,
122930,0.0060968883203688096,-0.006334517758388447,0.000656218648617729,0,
122934,0.004922777641200415,-0.023416725389216353,0.005283913672297635,0,
122938,0.003839301827100461,-0.021298271492077525,0.006804295127197241,0,
122942,0.004641954047535868,-0.017514269898459833,0.006260172563069127,0,
122946,0.003199119441196996,-0.013336782773238465,0.0059298295411315816,0,
122950,0.000698148342898941,-0.00547666354212506,0.005616705111073816,0,
122913,,,,0,137697
122923,,,,0,137542
122933,,,,0,137437
122943,,,,0,137368
122953,0.0006512634352107138,0.0026293204802425585,0.008329355039174952,0,
122957,0.001435910333837942,0.014451794876367607,0.014549229514953438,0,
122961,0.00027874456496390643,0.021344545096034118,0.01529850106652239,0,
122965,-0.002423285915887252,0.01443803756514317,0.008367963584984012,0,
122969,-0.0035879555824374076,0.0032673089370929276,0.0043762563818421085,0,
122953,,,,0,137296
122963,,,,0,137260
122973,-0.0034608437468713893,0.0006234258465189768,0.005015207970882507,0,
122977,-0.0041669923454575875,0.008148195274574555,0.002352510854049694,0,
122981,-0.007244157063864498,0.014806852166045381,-0.002244652855272977,0,
122985,-0.010395810500810954,0.015040732276729418,-0.004078189810367977,0,
122989,-0.008153119786807217,0.012370871818284002,-0.0041252460303468075,0,
122992,-0.002946104127076521,0.008691420429803198,0.001496438588334481,0,
122996,-0.0012668783666894834,0.005102347192897483,0.014703970809857247,0,
123000,-0.0036709311755225293,0.00048798426321416954,0.025562027981019197,0,
123004,-0.004936809293697886,0.0005930130525837463,0.023436680714207875,0,
123008,-0.001599265433382624,0.010774407059413793,0.010085008234066606,0,
122973,,,,0,137267
122983,,,,0,137263
122993,,,,0,137266
123003,,,,0,137288
123012,0.0017144465544787213,0.017959095403685232,-0.0012635185352133094,0,
123016,0.0010139677613165698,0.013544292882085252,-0.004652911326801318,0,
123020,-0.0021481955441507994,0.006562545802306641,-0.0036429822982752824,0,
123024,-0.004842364895350393,0.0004764223910487253,-0.0009023028475826922,0,
123028,-0.0036173021809542405,-0.004999201265099007,0.00014220120128896618,0,
123032,-0.0012175995346117574,-0.00414719119955409,-0.001554500712214052,0,
123013,,,,0,137317
123023,,,,0,137344
123035,-0.0006740306829282616,0.0011170783178076071,-0.004671017426089219,0,
123039,0.0022466472039494034,0.011382523420222945,-0.006523936269906133,0,
123043,0.005726665422710386,0.026487427924724027,-0.004615466035315152,0,
123047,0.005980139927310946,0.03555574970694941,-0.0012417156797386308,0,
123051,0.005904896273911775,0.026886904909168674,0.00219027606212277,0,
123055,0.007171020985968668,-0.0021547323264372586,0.004710216301760134,0,
123059,0.0075584447672509825,-0.024317230687225688,0.004407042717631149,0,
123063,0.006450617480856513,-0.02664723221104115,0.003195131175155491,0,
123067,0.004919265077065971,-0.028250828050968124,0.002822286396852891,0,
123071,0.002714726879271101,-0.027007392374791106,0.0015371269131695398,0,
123033,,,,0,137316
123043,,,,0,137325
123053,,,,0,137323
123063,,,,0,137337
123073,,,,0,137359
123075,-4.624268410235999e-05,-0.021496250169494413,0.000874282254728187,0,
123078,-0.001777119898580981,-0.021453944429003613,0.002930909572602003,0,
123082,-0.0021577497157864167,-0.020647519708065776,0.004078842388512638,0,
123086,-0.002349997499590417,-0.011618234130739147,0.0023445180360069096,0,
123090,-0.0024395785226455358,-0.0008589128702429782,0.004102919716526959,0,
123083,,,,0,137360
123092,,,,0,137410
123094,-0.0037403562600940576,-0.000573280990302294,0.008287861533860574,0,
123098,-0.0034380602152294104,-0.00298404011327591,0.004616184103298809,0,
123102,-0.001148154914203392,0.00028847092332595636,-0.002077215500733337,0,
123106,-0.0022761074624213506,-0.0023760827820051844,-0.005042302752330835,0,
123110,-0.0041143420873391845,-0.011529472757375814,-0.006376764964570764,0,
123114,-0.0040466946108645985,-0.014758328633632356,-0.005014128586282751,0,
123117,-0.0030502602019107927,-0.007607527308425954,-0.0026258616291837678,0,
123121,-0.0009856122407013723,0.0028505433035106442,-0.002104273571501336,0,
123125,0.0011712573376262414,0.010549115883020654,-0.0022376814201961193,0,
123129,0.003021359794034395,0.014656960296595578,-0.0010435013391938697,0,
123102,,,,0,137438
123112,,,,0,137456
123122,,,,0,137468
123132,,,,0,137483
123133,0.0033853909716472508,0.014137066981852353,0.0008472133722619013,0,
123137,0.0020101292819985073,0.01313480584693627,0.0012828362118896819,0,
123141,0.0012576258227825488,0.01554814957593642,0.0016951668206635073,0,
123145,0.0019795327969509557,0.01689951227613573,0.002452942977268141,0,
123149,0.0021530352547384224,0.01614658708195371,0.002919632330795674,0,
123153,0.0003190961408245929,0.012251025056904563,0.0042420183619757135,0,
123157,-0.0008573997922295407,0.0031979840457183606,0.004872211202305438,0,
123160,7.427451033836796e-05,-0.001464633641384161,0.002995585068684803,0,
123164,0.00031434290914078566,0.0027763438820884723,-0.0008006304303488088,0,
123168,0.002864225709755086,0.004244999697270657,-0.0032819172860169277,0,
123172,0.007786390380773334,-0.003239889976091259,-0.0022000264086715626,0,
123142,,,,0,137495
123152,,,,0,137508
123162,,,,0,137507
123172,,,,0,137499
123176,0.005881663850936247,-0.0112167867414934,-9.57234634623716e-05,0,
123180,-0.0008371394042703262,-0.013721770186117421,0.004375297250940047,0,
123184,-0.004708891594752518,-0.013376539681371646,0.010045980079204458,0,
123188,-0.006411128851324666,-0.014548383110731145,0.00979880806141789,0,
123192,-0.007345483262689578,-0.016445129292805394,0.006708079822263513,0,
123182,,,,0,137514
123192,,,,0,137519
123196,-0.006285115920477424,-0.013602320528087297,0.003785849204352487,0,
123200,-0.0035199842525567293,-0.008368080187121318,0.0005952651783696361,0,
123203,-0.0013163887250244866,-0.007093448261977997,-0.00039466230053747386,0,
123207,-0.000476048982649524,-0.005024631662163603,-0.0002784898889530707,0,
123211,-0.0015089601629098004,0.0031455672256015532,0.0008979204119869411,0,
123215,-0.00292426385604172,0.011748087783960415,0.0035203987859523667,0,
123219,-0.001532474120408689,0.016246090809458824,0.0032646454959758264,0,
123223,0.0005155057841385036,0.016238511696120117,-0.0009335314793238458,0,
123227,6.613861945004018e-05,0.00931855184715591,-0.004108929420690077,0,
123231,-0.0029860550883281656,-0.002303595719914675,-0.0030600035750217025,0,
123235,-0.006299152194016,-0.00710066693054312,-0.0011497890814135547,0,
123202,,,,0,137496
123212,,,,0,137525
123222,,,,0,137521
123232,,,,0,137534
123239,-0.00615341094646904,0.002161422518785816,-0.0014115690580562001,0,
123243,-0.004267945471337575,0.011890439943516906,-0.00280486838311117,0,
123246,-0.001833234331512834,0.010539581917935692,-0.003842828065278081,0,
123250,0.0021192727187221427,0.009709663240872413,-0.0060689087380501605,0,
123254,0.0032430286812556997,0.01069365373068809,-0.010338304568100837,0,
123242,,,,0,137568
123252,,,,0,137603
123258,0.0008718516699124379,0.0043131938905771605,-0.00975585696503295,0,
123262,-0.0023333695667824284,-0.002521711572498031,-0.0042017881476415775,0,
123266,-0.0054913341604375665,-0.0030899179071277594,-0.0010786691676389903,0,
123270,-0.004602242196597439,-0.0009432373059543586,0.0024260063298696677,0,
123274,-0.00032398700893443433,-0.00039212030641122553,0.006993303605597523,0,
123278,0.001150130203693367,-0.0025691262947535876,0.003406198332922966,0,
123282,0.0002024516990343228,-0.004694411147406985,-0.0037074544103118945,0,
123285,8.825508407184213e-05,-0.004012279513377681,-0.005655917856775078,0,
123289,-0.00040670567143186176,-0.002390157142542648,-0.007891210934864334,0,
123293,-0.0014509809133588236,-0.0013336263572361062,-0.01047150006381517,0,
123262,,,,0,137622
123272,,,,0,137653
123282,,,,0,137690
123292,,,,0,137718
123297,-0.0003279100904206578,-2.4321125642767782e-05,-0.010139611672704274,0,
123301,0.0024090652335975182,-0.00042140609567420384,-0.008672849729862209,0,
123305,0.004084211079294131,-0.0016001822792128806,-0.0046842062420378305,0,
123309,0.0051357789453511105,0.004068783591130387,-0.0026042425829576887,0,
123313,0.006657041666792818,0.017178141654918377,-0.00398763174724881,0,
123317,0.007358631651026348,0.025370875085341194,-0.0041880896814665,0,
123302,,,,0,137751
123312,,,,0,137776
123321,0.007057786727984072,0.02590258316914129,-0.00530037742576539,0,
123325,0.0072040446404653125,0.02873739263158459,-0.0069137828783659705,0,
123328,0.007142971859227187,0.03228962426364257,-0.006782965164397331,0,
123332,0.005688985096105825,0.027955610631604344,-0.006391979069040182,0,
123336,0.003557852628969571,0.017914906384604468,-0.005002383810016303,0,
123340,0.0024124899757738127,0.010973024482895166,-0.005738933542760449,0,
123344,0.0029111067610594343,0.007051454239160204,-0.011686916131864095,0,
123348,0.0032222392772930375,0.002515687037194958,-0.013513283036463819,0,
123352,0.0020986457325926633,0.0014839178560843713,-0.008315972060801174,0,
123356,0.0006672323009552228,0.0059476276202627965,-0.003432635299357778,0,
123322,,,,0,137801
123332,,,,0,137839
123342,,,,0,137885
123352,,,,0,137909
123360,0.0013267622630334097,0.014402726824558787,0.0016068774208911063,0,
123364,0.003986265048102178,0.023336801061847545,0.005291545375005147,0,
123368,0.004608318900911734,0.023641695788292783,0.0021858400513249943,0,
123371,0.0025622752692225914,0.01502559012985527,-0.0017562945306708877,0,
123375,0.0015678317815320808,0.0069673644317327366,-0.0014550539213278313,0,
123379,0.0022845329688883087,0.005463635766250974,-0.0017393148198691921,0,
123383,0.0022332218698596362,0.008704505468341228,-0.0049957676120021555,0,
123387,0.0019793424358852674,0.009269957803544226,-0.0065177161677152096,0,
123391,0.00038684914366349243,0.006315220577872704,-0.004859222249544409,0,
123395,-0.001858864466179555,0.005715104297278284,-0.0037111795812849457,0,
123362,,,,0,137954
123372,,,,0,137972
123382,,,,0,137994
123392,,,,0,137992
123399,0.0011246108671295607,0.0122655475777953,-0.0041570708395451406,0,
123403,0.005531988375453878,0.02224617242641358,-0.006037485981815999,0,
123407,0.005491439491344785,0.022218388508348674,-0.007238533532966468,0,
123410,0.0041188559533205105,0.013127091399649071,-0.005089112293481718,0,
123414,0.0036109762736387108,0.004689802779950014,-1.5663264496118545e-05,0,
123418,0.0034728424049847995,-0.0009338961796641065,0.004494490140921903,0,
123402,,,,0,138025
123412,,,,0,138042
123422,0.002885617752199976,-0.0010805735079482126,0.003941136116370231,0,
123426,0.0007634610276416876,-0.0011836117593597706,0.00020620934901610655,0,
123430,0.0006610536058448968,-0.011618941299683883,-0.004912875701519381,0,
123434,0.003709402823089958,-0.023709981374802958,-0.009656587644460118,0,
123438,0.0034277093495683753,-0.019783344991863405,-0.008242792955077238,0,
123442,-0.0008674952926632784,-0.007493146545037632,-0.00415639531484896,0,
123446,-0.0032212219782769003,-0.0033605993206551332,-0.0019499266277895333,0,
123450,-0.0029093136552004184,-0.009470989659834839,0.0017714253825144577,0,
123453,-0.0038042495036996193,-0.020594965047304736,0.00578955173587431,0,
123457,-0.0049350404248541535,-0.02527214684403578,0.0032531738218176676,0,
123422,,,,0,138061
123432,,,,0,138086
123442,,,,0,138110
123452,,,,0,138147
123461,-0.001199511609819015,-0.02252673497865665,-0.003259282577854905,0,
123465,0.003682951032584647,-0.020762062117180236,-0.0055848346190749965,0,
123469,0.002985473408845696,-0.01813282101206104,-0.0041300559545128235,0,
123473,0.00045633912606390936,-0.010443749683308745,-0.0034661166280529343,0,
123477,0.0011338666369149486,0.0027016167676978675,-0.004988474350873406,0,
123462,,,,0,138167
123472,,,,0,138178
123481,0.0029354904472861376,0.012745947943312963,-0.007887589625108188,0,
123485,0.0028149770198446777,0.009941709975699542,-0.010212427542450109,0,
123489,0.002103454073715594,0.0008327370897052155,-0.011002037881291171,0,
123493,0.0025671487475118493,-0.004165006540022276,-0.013105212228990665,0,
123496,0.004154428821519618,-0.00046550633364450533,-0.01573471885264588,0,
123500,0.005615324490711671,0.009057308168567424,-0.014462189775347467,0,
123504,0.005427406447145455,0.014678069791191017,-0.010208366549984554,0,
123508,0.004061561938070279,0.013683075098671171,-0.0076132104970975945,0,
123512,0.003023303301374014,0.0110945905706612,-0.008510864455269301,0,
123516,0.003030365441963334,0.012086244453093808,-0.009708608149129355,0,
123520,0.003697164279412024,0.015124136474729433,-0.014415032666964589,0,
123482,,,,0,138198
123492,,,,0,138229
123502,,,,0,138235
123512,,,,0,138250
123524,0.004019626413475086,0.011954546799847865,-0.019979946328136156,0,
123528,0.00416023145890132,0.008814113796235201,-0.014420791591738091,0,
123532,0.004589310738975283,0.014023892443324026,-0.005230916597928875,0,
123536,0.0040166977640054835,0.017333472825820095,-0.003141050219631375,0,
123539,0.0020265050412126007,0.012561939592723004,-0.004740558320577154,0,
123522,,,,0,138265
123532,,,,0,138308
123543,-0.0012056767261875434,0.0028709302359142264,-0.0050824015264646916,0,
123547,-0.004124653973730741,-0.0053335661737419215,-0.0032647442113591107,0,
123551,-0.00402449922599224,-0.008987551030236407,-0.0015931838238350537,0,
123555,-0.0020214177986714876,-0.008353688365584144,-0.001856405433971281,0,
123559,-0.001616614235967373,-0.0014903540246806735,-0.0023242134435986217,0,
123563,-0.0028863194135922976,0.005990082634967031,-0.0016222573828063025,0,
123567,-0.0034517831839340207,0.01071468047379387,-0.002247894928839256,0,
123571,-0.0018337656066733654,0.016020663407562807,-0.0046026207938787145,0,
123575,0.0006836309464613999,0.01701929147172132,-0.004835625001190558,0,
123578,0.0004964021765231363,0.006901622770596916,-0.0043005437512456945,0,
123542,,,,0,138315
123552,,,,0,138341
123562,,,,0,138363
123572,,,,0,138387
123582,,,,0,138418
123552,,,,1,
123582,-0.0011822919746767857,-0.00744317295889374,-0.005727702757082037,0,
123586,-0.0012596612500371807,-0.012331343882549195,-0.007178100890990219,0,
123590,-0.00020922693851710417,-0.005097587389540692,-0.0083511048020527,0,
123594,0.000933954624383504,0.0020890803980440076,-0.008598881332596287,0,
123598,0.0019367497039276538,0.0002543658297238238,-0.007991149856757002,0,
123602,0.0014677935175479995,-0.008123618843159264,-0.011632699473917513,0,
123606,3.254043783484928e-05,-0.016266308430802123,-0.021948860207544746,0,
123610,0.001378299380387249,-0.013664206322516304,-0.030721496163888806,0,
123614,0.004902312379044371,-0.007933752409458261,-0.02481901122591454,0,
123618,0.006080310378870135,-0.01336525420966117,-0.003987001469688473,0,
123621,0.005142700400866951,-0.021750763048044686,0.013915882458520268,0,
123592,,,,0,138407
123602,,,,0,138428
123612,,,,0,138437
123622,,,,0,138461
123625,0.00556437952277844,-0.018646669545901773,0.016190742509507527,0,
123629,0.006870019877704858,-0.006895614248753734,0.003347193187498765,0,
123633,0.005450240945191642,-0.004627771824145199,-0.015933047153911584,0,
123637,0.0006751921115800696,-0.011076187210981914,-0.0295033943923885,0,
123641,-0.001115532199105762,-0.00825080028193348,-0.02939489220402769,0,
123632,,,,0,138483
123642,,,,0,138506
123645,0.0015603938841354248,0.004532133434777208,-0.01579594959651473,0,
123649,0.003560171246978383,0.01492262291967128,-0.0010761489466801222,0,
123653,0.005301675295593666,0.013548783415646248,0.006335278255696741,0,
123657,0.008036166976714054,-0.003318018362947317,0.00892705601095578,0,
123661,0.006754282166639203,-0.016125075569397573,0.008216525027874122,0,
123664,-0.0007080324617939615,-0.010556816007747827,0.005914772792881412,0,
123668,-0.007564197521459093,-0.005386681860387821,0.003361768542224447,0,
123672,-0.00890964561805585,-0.012365345207404843,-0.0013713451940920163,0,
123676,-0.004865468846044441,-0.016377797416287088,-0.005703209131844994,0,
123680,-3.0362576398657026e-06,-0.007998860870426672,-0.007033111726787805,0,
123652,,,,0,138517
123662,,,,0,138546
123672,,,,0,138563
123682,,,,0,138579
123684,-0.00033651425688108194,0.0008570350240972857,-0.007747780252035513,0,
123688,-0.004879373196165937,0.0004027201524876567,-0.005945976911350986,0,
123692,-0.007738287484040152,-0.00930541214877767,-0.0026640404329924816,0,
123696,-0.0072670264528328365,-0.018206689614144622,-0.0031089110403050846,0,
123700,-0.005343306832554351,-0.018987680216025815,-0.005613084873794805,0,
123703,-0.0035220594559172147,-0.017133081274040673,-0.004590515008909002,0,
123692,,,,0,138623
123702,,,,0,138652
123707,-0.004462640372381199,-0.014908857495233185,-0.0022369361214025774,0,
123711,-0.006704244277593752,-0.011714056975230758,-0.003600806906100651,0,
123715,-0.006785733825493079,-0.010965985870907247,-0.0030638269214128266,0,
123719,-0.0036068045311838937,-0.009096650837526532,0.00035154190952962905,0,
123723,0.0005002633899960918,-0.0022156039343670386,0.0028106727884886773,0,
123727,0.0027927043056636958,0.005521516450135877,0.006461756672504898,0,
123731,0.003624526759367863,0.011765588616525324,0.00887284808937358,0,
123735,0.0019745625549686396,0.013056682076501236,0.007175971297879141,0,
123739,-0.0010371698315516653,0.009795548370280294,0.0037972858333347737,0,
123743,-0.001566171146219597,0.0062327805509516665,0.0015251131585974909,0,
123712,,,,0,138687
123722,,,,0,138732
123732,,,,0,138748
123742,,,,0,138725
123746,0.0012501626086094397,0.004601863151054264,0.0012644923572327216,0,
123750,0.004475244771476539,0.005329518928422594,-0.00029583123884110996,0,
123754,0.004810970353546051,0.0026801698588867495,-0.0018903350378883521,0,
123758,0.0031776917518768766,-0.003677551305884652,0.0007329480796133825,0,
123762,0.004070579115322381,-0.013126245418010996,0.003223384770060067,0,
123752,,,,0,138672
123761,,,,0,138544
123766,0.007377452225243553,-0.017770163860172605,0.0017439386507876464,0,
123770,0.008588422907586435,-0.00879127930488588,-0.0003046769899851254,0,
123774,0.009053734469114838,-0.005621906553891609,-0.0005051313857275808,0,
123778,0.011767091209157976,-0.014754438995429275,0.0004371184771171932,0,
123782,0.013414749810658044,-0.023112641609122964,0.0007389742927561005,0,
123786,0.010328618961398917,-0.025350665630048397,-0.001629435435332588,0,
123789,0.006272622429195018,-0.0233820923168091,-0.004014838092609968,0,
123793,0.005626802963531685,-0.029923606203781983,-0.0035636366108279804,0,
123797,0.005308114980494549,-0.03783757028610246,-0.0012554612517680641,0,
123801,0.0036799498369342043,-0.037441277365541925,0.0008823998258345456,0,
123805,0.003440864890913664,-0.031995562934036936,0.0008013466643164435,0,
123771,,,,0,138380
123781,,,,0,138162
123791,,,,0,137946
123801,,,,0,137775
123809,0.0022007930638873185,-0.017378587438825033,-0.0006844911710807977,0,
123813,2.0152482790636306e-05,-0.00993836841702267,2.3256585678421704e-05,0,
123817,0.0019270310154754222,-0.02313444078501714,0.0006931607546873664,0,
123821,0.004531421345781439,-0.035071594588881094,-0.001638825000623123,0,
123825,0.0022501530906138267,-0.028918276748906457,-0.002471238303783374,0,
123829,-0.002088818979259499,-0.013575742013649084,-0.0012104343124166306,0,
123832,-0.002706624656622081,-0.0003620510746431549,-3.3148840394847667e-07,0,
123836,-0.0002472357642080425,0.005360202324624641,0.0007150520432693819,0,
123840,0.002889168627551175,0.0016405294629127098,-0.0007789916041828215,0,
123844,0.004979723874500297,-0.004892716342769443,-0.001845729863839768,0,
123811,,,,0,137579
123821,,,,0,137451
123831,,,,0,137330
123841,,,,0,137262
123848,0.0037106171882193006,-0.004266687757071175,0.0010807836414001293,0,
123852,0.0007930093907828617,0.0020747708027220035,0.0034868765216731767,0,
123856,-0.0016224356451486344,0.005253250908556328,0.002402021673677146,0,
123860,-0.001095819819239563,0.009082860295448913,0.0013473244322152467,0,
123864,0.0005668823365465592,0.018504631138494432,0.0003365510787350645,0,
123851,,,,0,137178
123861,,,,0,137155
123868,-0.0015720868053312742,0.018687752303362615,-0.002555955079229788,0,
123871,-0.005149503668936628,0.0029418661971574167,-0.007837281007691627,0,
123875,-0.007479825480097957,-0.012280343095963708,-0.014963838721598344,0,
123879,-0.0071961996915093085,-0.012140419635727984,-0.014539094708402783,0,
123883,-0.0038552924228953955,-0.0017332287547247027,0.001436151295253013,0,
123887,-0.002131972970752405,0.0028068021203027094,0.020161654468695694,0,
123891,-0.0024746281660753544,0.0019962144999778886,0.02279723773542572,0,
123895,-0.0002112070967522639,0.0007738410186890476,0.009361329592475764,0,
123899,0.0068027179499663415,-0.0036274062307408705,-0.004521584714557464,0,
123903,0.011071111559198488,-0.0035708764013109295,-0.008464161781744306,0,
123907,0.005194229002667083,0.0048860475886294275,-0.005897075994959422,0,
123871,,,,0,137141
123881,,,,0,137129
123891,,,,0,137160
123901,,,,0,137159
123911,-0.0029765195567226232,0.008088689869347299,-0.003947861103693717,0,
123914,-0.004957559530245903,0.0027416209841324424,-0.0025798530000517017,0,
123918,-0.00333678733674847,-0.0009776642337349095,6.983469229482342e-05,0,
123922,-0.00239694668690027,0.0031515671698518766,0.0021454475351576907,0,
123926,-0.0029080714111475725,0.014698806038854872,0.005274706780072552,0,
123911,,,,0,137184
123921,,,,0,137231
123930,-0.001141990441958174,0.01936292031446829,0.008516629548226823,0,
123934,0.004299100807047651,0.013734574626459661,0.005462168712927901,0,
123938,0.006607079067264654,0.018688638813273872,-0.0008917285164860289,0,
123942,0.0075045693099543564,0.029000539067109532,-0.004807938177340876,0,
123946,0.010021783721503974,0.014466421914582916,-0.007128480803288845,0,
123950,0.009017199312345237,-0.016390369461294796,-0.007642126486496537,0,
123954,0.0044041779752951316,-0.02799032964656467,-0.00509612949484925,0,
123957,0.0003635378686652757,-0.02101639678933953,-0.0002101707840250766,0,
123961,0.0005024881082656973,-0.013775186794215522,0.0024864120602797746,0,
123965,0.0030017049121856543,-0.007491965954111279,0.0018949875051061382,0,
123931,,,,0,137251
123941,,,,0,137272
123951,,,,0,137304
123961,,,,0,137336
123969,0.004834972198830778,-0.009930926465602674,0.002275311806487157,0,
123973,0.005527974052077722,-0.024219328355949532,0.0007246328129668356,0,
123977,0.004955347309318459,-0.0259338479317357,-0.005020517853357054,0,
123981,0.003540666907422496,-0.00454923851683553,-0.006498425339560243,0,
123985,0.002350532053548182,0.018578545385846468,-0.0019924093620539707,0,
123989,0.0016368902841485955,0.029399064410217335,-0.0010120831818578313,0,
123971,,,,0,137380
123981,,,,0,137402
123993,0.00042579601605885475,0.02803486014851453,-0.0026451910869886575,0,
123996,-0.0012019917578489636,0.019459033097827927,-0.0009012876344071663,0,
124000,-0.003305810320602953,0.009576610532917584,0.0005697298435918818,0,
124004,-0.0036176968702372747,0.008019542104584776,-0.0002893615390034132,0,
124008,-0.0011498286099177468,0.015932665062393436,-0.0010876388387844604,0,
124012,-7.120344313304994e-05,0.01677410287357395,-0.0016075539452819199,0,
124016,-0.00030772099720488555,0.009874211968635027,-0.0013930135591564419,0,
124020,0.0035399562576913235,0.0058501424247001665,0.0009065531829030304,0,
124024,0.006784797029809275,0.002628672360568629,0.0036874594806723393,0,
124028,0.001377074882240259,-0.0020515253419635116,0.0046270214023321765,0,
123991,,,,0,137425
124001,,,,0,137453
124011,,,,0,137481
124021,,,,0,137485
124032,-0.0053607133477007185,-0.005918764145345534,0.003381581324155475,0,
124036,-0.006129620072932163,-0.006503917519554925,0.001593023311989794,0,
124039,-0.0040270114787607225,-0.0019466584111151874,0.0026459843848321007,0,
124043,-0.0018155199398016686,0.007849560800478717,0.005589934297686644,0,
124047,-0.00017134995403955688,0.021290909774374533,0.005900625996582642,0,
124031,,,,0,137484
124041,,,,0,137483
124051,-0.0037383088899906047,0.021798677109586162,0.003751465553103017,0,
124055,-0.010143178461775926,0.0017263969415339808,0.0010201356260153005,0,
124059,-0.009402834494517842,-0.012780259136220717,-0.0014480589075437922,0,
124063,-0.004954935280124806,-0.008650999116359692,-0.001945943985910692,0,
124067,-0.0032509626863611585,-0.002040090545458284,-0.0015140278859265832,0,
124071,-0.0024654769830445566,-5.1543376238250005e-05,-0.0008412159503225769,0,
124075,-0.002005628748684707,0.0058823854202900705,0.0001936459897839693,0,
124079,-0.0016970076420592672,0.016961496979143842,-3.363393206276544e-05,0,
124082,2.5475575199607192e-05,0.016480403105589403,-0.0013773989224258043,0,
124086,0.0026336550937322567,-0.005160097002492758,-0.0028409648491257433,0,
124090,0.0016338058958725865,-0.024920003837202387,-0.0029561961611437315,0,
124051,,,,0,137472
124061,,,,0,137444
124071,,,,0,137454
124081,,,,0,137437
124091,,,,0,137429
124094,-0.0012160006171297866,-0.025135464933279117,-5.6121372145279125e-05,0,
124098,0.00021788564807412314,-0.014221371212007838,0.002622296727280843,0,
124102,0.0022922920919900003,0.003975193012167644,0.00035169650965355403,0,
124106,0.0008393772355594908,0.0198387863250975,-0.004967257237476708,0,
124110,0.0013090255311239973,0.015550635995121631,-0.007407059093223228,0,
124114,0.004825161151738255,0.0006288384516737189,-0.0033385698212793913,0,
124118,0.0032714089251036915,-0.002808248797269819,0.0015555894688409344,0,
124122,-0.0024150964215287063,0.0027285772838090416,0.0008649853294786791,0,
124125,-0.0066265915454623014,0.0031120620077791372,-0.0011664266194531536,0,
124129,-0.008248995305004336,-0.007063135797908515,-0.0012086759144895043,0,
124101,,,,0,137412
124111,,,,0,137409
124121,,,,0,137415
124131,,,,0,137424
124133,-0.006121022559872347,-0.01583275571705256,-0.0009152001587778014,0,
124137,-0.0028367964342911334,-0.012421140973329248,-0.00043026794500813925,0,
124141,-0.0022489227375481757,-0.005998285679393867,-3.974552155350253e-05,0,
124145,-0.001698629206725033,-0.0007602047414128066,0.0005966151854878143,0,
124149,0.0009542529780497411,0.010970535691615435,0.0021668383367756394,0,
124141,,,,0,137426
124151,,,,0,137444
124153,0.001715196639677563,0.023054786533502014,0.0033597041404406502,0,
124157,-0.0006476594607831565,0.02067916005563175,0.0011984239333372726,0,
124161,-0.001349304800488893,0.014113277835853921,-0.0019758224500791566,0,
124164,0.0010524909405000837,0.019298970159365325,-0.000897400699075318,0,
124168,0.0021597654411663614,0.02704450481086651,0.0007097669169122411,0,
124172,0.0012668911512002667,0.028123963945493546,0.0005651614333518351,0,
124176,0.0005480128121668759,0.02463739614225835,0.0012707514762433925,0,
124180,-0.003071173092634938,0.01372694683827147,0.0013237500739887442,0,
124184,-0.007377615642171098,0.002672362162479569,-0.001696320919647415,0,
124188,-0.006222162261394049,0.0015342255703698626,-0.004361801716996683,0,
124192,-0.0027578981903251254,0.0032105123327341722,-0.0028339153267394612,0,
124161,,,,0,137475
124171,,,,0,137517
124181,,,,0,137543
124191,,,,0,137559
124196,-0.0001217104442149397,0.0035517136257707804,6.610628929246132e-05,0,
124200,0.003214948699074016,0.00036636262611455805,0.001359012448497371,0,
124204,0.006370387524516463,-0.0031027769511311476,0.0012662916909960686,0,
124207,0.004792864862017798,0.0007498492415276559,0.0006008754828707996,0,
124211,0.0008955702298466539,0.008610540010379086,-4.3393986326856204e-05,0,
124201,,,,0,137594
124211,,,,0,137640
124215,-0.00018224640173802875,0.013273959133367708,-9.36341423497522e-05,0,
124219,0.0002550652373375373,0.010743593984429811,0.0003932379656290952,0,
124223,0.0005743996409672825,0.005898164144471085,0.0009413688679785759,0,
124227,0.00030325695628863336,0.0057667150249258725,0.00018144477623188715,0,
124231,-0.00024934636240048214,0.010580157847530192,-0.002500713369770202,0,
124235,-0.0005275233604041807,0.01657252802823228,-0.003962646759224864,0,
124239,0.0002891053386587794,0.010782889346042879,-0.0011572738535342297,0,
124243,0.0013255443797731692,-0.009855385099378111,0.0020354121241944745,0,
124247,0.0006705996687901283,-0.019107964964351076,0.0014530589556629447,0,
124250,0.00013814374841625288,-0.007145746417429599,0.0005930228227565837,0,
124221,,,,0,137662
124231,,,,0,137665
124241,,,,0,137710
124251,,,,0,137727
124254,0.0008943107498148306,0.006613175306783514,-3.1766326390320065e-05,0,
124258,0.0015870592301546749,0.01530673014775319,-0.0016787413617556923,0,
124262,0.0022458387594613827,0.026657990171619073,-0.004396783042600105,0,
124266,0.0013814734288711827,0.03280452097792308,-0.0061931514417002675,0,
124270,-0.0032490242601117547,0.021151164537563272,-0.0025659948766650897,0,
124274,-0.00623059276217286,0.008111736813322334,0.0006917719743690376,0,
124278,-0.0025646102098156875,0.010060701272891048,-0.0005039865076858219,0,
124282,0.0011869048877616306,0.012781436927153056,-0.0012069818343767857,0,
124286,0.0008119544403550893,0.009650733347910112,-0.0008927862436551026,0,
124289,0.00036897456675144547,0.011492410788556562,-0.0016119729742620215,0,
124293,0.00011591582733505579,0.01545753692989793,-0.001670617490124704,0,
124261,,,,0,137744
124271,,,,0,137759
124281,,,,0,137770
124291,,,,0,137787
124297,-0.0022450746840174673,0.012754685001722166,-0.0005230696175975158,0,
124301,-0.004263817629527211,0.006613404982229731,-0.0009355139145595659,0,
124305,-0.004041795101961121,0.003154319706915487,-0.0031832342974695005,0,
124309,-0.003724955808817376,0.002169036333659502,-0.0033074775158844216,0,
124313,-0.0036957776767740924,0.0013432543041598244,0.00015231585562719419,0,
124301,,,,0,137813
124311,,,,0,137810
124317,-0.0022915093336383086,0.0015724825691587618,0.001848486162736751,0,
124321,-0.0010047269294322092,0.0037792543687515945,0.0011471554980705123,0,
124325,-0.001805570596372097,0.0026099297558270784,0.002160100291680983,0,
124329,-0.0010308182537971389,-0.005235807165967721,0.0044501048119013065,0,
124332,0.001299282481329378,-0.013099791936519889,0.0056043335043000075,0,
124336,-0.000685329197539053,-0.015134932940098267,0.003779013406308096,0,
124340,-0.003979453856555737,-0.014538199706331412,0.001605726428006632,0,
124344,-0.0034397137517360177,-0.012664365679852185,0.0018629839168670115,0,
124348,-0.0015551731308421912,-0.007697857959003684,0.0032870743350993104,0,
124352,-0.002451787881810441,-0.002473463562560063,0.002541591420645084,0,
124321,,,,0,137855
124331,,,,0,137857
124341,,,,0,137872
124351,,,,0,137890
124356,-0.003998011935377965,0.004099553519741228,-0.0009030524057059008,0,
124360,-0.005259242701390665,0.012763198531958508,-0.00033575830072454793,0,
124364,-0.008456940425569215,0.013542096600180908,0.0023582847426772136,0,
124368,-0.0066776739916453165,0.00803843170503793,-0.0013677731405856153,0,
124372,-0.0007028320981377068,0.0032636637866607643,-0.006935300720535914,0,
124375,0.00022065746465183,-0.004114580261951328,-0.006292262142063743,0,
124361,,,,0,137904
124371,,,,0,137925
124379,-0.001668767165067253,-0.010770721149577778,0.00296421140431663,0,
124383,-0.0008056521237009839,-0.00980072866915771,0.017474865480676838,0,
124387,-0.00012429186082874022,-0.004860790964154926,0.026448792428347634,0,
124391,-0.0016638085323591456,-0.0024964780947653864,0.023137379370207517,0,
124395,-0.001758222458740244,-0.0017013287881093575,0.004879853159361236,0,
124399,-0.000542323189423155,-0.003079902771098375,-0.021334394244877458,0,
124403,-0.0013653020711890118,-0.005148216809085948,-0.036255164909666016,0,
124407,-0.003940348165655916,-0.004761954928973466,-0.03187666828076868,0,
124411,-0.004157320363979644,-0.004478958435848224,-0.015151494225391526,0,
124415,-0.000939323839241335,0.0006866978679580527,0.0022577652980679264,0,
124381,,,,0,137948
124391,,,,0,137976
124401,,,,0,137977
124411,,,,0,138022
124418,0.0031390661701988787,0.00630172297525311,0.01188037780007975,0,
124422,0.004813410738113255,0.0002478016709743791,0.013189707784627608,0,
124426,0.0035894090988584093,-0.0009536438964410365,0.01125258380418162,0,
124430,0.000721378232422909,0.014098886258405496,0.009919054563057972,0,
124434,-0.001769750640864709,0.0296255946800974,0.007273206553264133,0,
124421,,,,0,138032
124431,,,,0,138049
124438,-0.0005481193964966824,0.03144460120480774,0.002157773816700126,0,
124442,0.0006302112739555721,0.018053217052693693,-0.0036396312064101155,0,
124446,-0.0020367639634703005,-0.0005192783509864185,-0.0055532618169480685,0,
124450,-0.005354685374175161,-0.01627763478714206,-0.0027749666745102985,0,
124454,-0.0074903728958394256,-0.025367293055118978,-0.0010592629233400208,0,
124457,-0.008253548270806155,-0.027023298870433976,-0.0006902406465998656,0,
124461,-0.0075286248204679,-0.025068853772920008,0.00032112290945374156,0,
124465,-0.00720143020859787,-0.020395563248334803,1.4771503936583663e-05,0,
124469,-0.006784378636361055,-0.01565854003403544,0.0016374913626664434,0,
124473,-0.0040182240119734924,-0.013844111259389003,0.006667732027026363,0,
124477,-0.0014577949113834254,-0.011033381920186436,0.007774171354949511,0,
124441,,,,0,138064
124450,,,,0,138081
124460,,,,0,138084
124470,,,,0,138124
124481,-0.003603966119053892,-0.008571887062037487,0.005077197067818867,0,
124485,-0.00863729475764008,-0.013098956113085869,0.0016450840429825808,0,
124489,-0.009527977574944946,-0.02096315123657888,-0.0012392215317412192,0,
124493,-0.005482307419436783,-0.023282076014201625,0.002045761969139581,0,
124497,-0.002204846847046582,-0.016652928210840745,0.008472733289300316,0,
124480,,,,0,138144
124490,,,,0,138148
124500,-0.002525518959882067,-0.004820481725689163,0.009296798623901842,0,
124504,-0.0060097390153398544,0.0011295391398107313,0.004565058614304396,0,
124508,-0.00932887331782195,-0.002136603695221506,0.0025593167796873206,0,
124512,-0.008570650046255901,-0.008915730423553647,0.00644778930391926,0,
124516,-0.006537157514336922,-0.018468552675340977,0.009000970345593773,0,
124520,-0.006410561499286649,-0.022399948886429044,0.007109127124107856,0,
124524,-0.004665320158740216,-0.012445575995838176,0.005753546119357689,0,
124528,-0.0010346564669221348,-0.0021552589958635515,0.007346812426559796,0,
124532,0.00029855932450084666,-0.0010621449014069917,0.008576629514705697,0,
124536,-0.00027431099037733553,-0.001571772385315473,0.007396628265345179,0,
124540,9.096882638115478e-05,-0.0002775030113366661,0.004227443385874913,0,
124500,,,,0,138172
124510,,,,0,138163
124520,,,,0,138119
124530,,,,0,138035
124540,,,,0,137863
124543,0.0024739936424371667,0.006441295801607794,0.0021841665521237508,0,
124547,0.005794193464557007,0.009839496403676318,0.003304828775303692,0,
124551,0.006809168273948285,-0.0028270241890280268,0.003380262195656847,0,
124555,0.004729460636553107,-0.012156279675756387,0.0010336840899731192,0,
124559,0.0033499038220534683,-0.003438354380086661,0.0030633468821160414,0,
124563,0.003957099349668036,0.012281439871497657,0.007293342024328714,0,
124567,0.005034755918156164,0.014217890929467902,0.005038190242990459,0,
124571,0.005756527807730616,0.0007734170460524936,0.0013065990547699302,0,
124575,0.0059297903224933,-0.009551103782618586,-0.0006809282347596257,0,
124579,0.00604484013141926,-0.010561032382814695,-0.0016234158966775825,0,
124550,,,,0,137687
124560,,,,0,137497
124570,,,,0,137327
124580,,,,0,137157
124540,,,,1,
124582,0.004107223930230552,-0.001181979118451526,0.0010428235172789402,0,
124586,0.0003092497214188805,0.007237884816524431,0.003993756049081781,0,
124590,-0.0013865512051647322,0.006660409162208669,0.004349235445936267,0,
124594,-7.0466375851063745e-06,0.009023559109526236,0.0040985389511897785,0,
124598,0.001043323106674543,0.011429750878343192,0.0037656120690233996,0,
124590,,,,0,137033
124600,,,,0,136888
124602,3.746423295658552e-05,0.004870058268516608,0.002900966687161083,0,
124606,0.0004025316416684799,0.0007476469322189594,0.0027004023933591415,0,
124610,0.0015799298095228176,0.0007203277556087073,0.002653450622214948,0,
124614,0.0009232416084149486,-0.001830057421437381,0.002732753130143567,0,
124618,-0.0008751689741749447,-0.0038804874277955648,0.00273285187225325,0,
124622,-0.0015635262956185114,-0.006401739147182006,0.0027730471680308955,0,
124625,-0.0005011146825062429,-0.009314831438026694,0.004653703683460436,0,
124629,-0.0008314566798450773,-0.010839013447348833,0.0037065736655690906,0,
124633,-0.0036316986153070996,-0.010900223296509193,-0.0016274655273674776,0,
124637,-0.006207701345978811,-0.012315451793243337,-0.00249902113185424,0,
124641,-0.006641884876761317,-0.01643899013864214,-0.0019129247456934895,0,
124610,,,,0,136803
124620,,,,0,136746
124630,,,,0,136699
124640,,,,0,136671
124645,-0.006462662103722927,-0.018977819390931572,-0.008216312379551005,0,
124649,-0.005940548300440884,-0.018699196677050445,-0.0075036128455960305,0,
124653,-0.004421355605189414,-0.018635123624644923,0.00840623194290474,0,
124657,-0.0029428070240014037,-0.01788107986417886,0.02558233964390566,0,
124661,-0.0006177020517122989,-0.011315328550372872,0.03164128794732263,0,
124650,,,,0,136651
124660,,,,0,136645
124665,0.0030523414434086016,0.003829734999496015,0.022187744321304187,0,
124668,0.006363895493880389,0.015796654811346844,0.006323050655390933,0,
124672,0.006907154429494966,0.010638768053740755,-0.0013897210222457157,0,
124676,0.0032830804834445004,-0.001847387462119432,-0.00019517900951770972,0,
124680,-0.0015462203475857805,-0.007987561176147295,-0.0014071785458359964,0,
124684,-0.002540878981491801,-0.007870894512705728,-0.007274826926951472,0,
124688,7.836822614848415e-05,-0.0019915269028691895,-0.009525926503581666,0,
124692,0.0020577377195031277,0.010010803804786583,-0.006581616381184846,0,
124696,0.002947680971592481,0.019223317057778022,-0.0024340033884979184,0,
124700,0.003341675105240083,0.0181230815138953,-0.001465510324160646,0,
124670,,,,0,136662
124680,,,,0,136658
124690,,,,0,136677
124700,,,,0,136683
124704,0.003253216899446909,0.015490382422360671,-0.005911487596212739,0,
124708,0.004021095362162774,0.0197121325543006,-0.010632541819385888,0,
124711,0.004932697172331579,0.023687207405445054,-0.010554359024345816,0,
124715,0.005026243452637691,0.02269352294913851,-0.006765793575258028,0,
124719,0.005738343294282466,0.015537039071331193,-0.004708876229537251,0,
124723,0.007617184436952917,-0.0036118756918668282,-0.0030928346579498778,0,
124727,0.007358299931024548,-0.020534283043585955,0.003965865228261978,0,
124731,0.0012490880671538473,-0.020095363782461906,0.007405939789687066,0,
124735,-0.005602848163542062,-0.011413361103895348,0.004191658377001778,0,
124739,-0.004936085113475541,-0.0017560255970163752,0.005721823532807202,0,
124743,-0.0012269588515654295,0.002257996118829375,0.010304338248784822,0,
124710,,,,0,136672
124720,,,,0,136699
124730,,,,0,136733
124740,,,,0,136764
124747,-0.0005032835804659186,-0.00324462149996263,0.008771552995224863,0,
124750,0.0021456569747674292,-0.012730816334904027,0.0030349450465249617,0,
124754,0.004545461592203925,-0.022981630720123825,0.0002715575781753743,0,
124758,0.0004665491810603717,-0.02631610377569782,0.0012674508003072127,0,
124762,-0.00361035860027481,-0.01909949024077573,0.002504827338012605,0,
124750,,,,0,136783
124760,,,,0,136805
124766,-0.0034555991037132916,-0.00988954276504117,0.0025689114019781245,0,
124770,-0.0017569005881010735,-0.0014644001032309006,0.003086070147463954,0,
124774,-4.007901620450838e-05,0.006973824931282291,0.003494230005335469,0,
124778,0.0011504463708368329,0.009936044833155133,0.001852214077216724,0,
124782,0.001577958674100044,0.01046658818270485,0.0019091628526438642,0,
124786,0.0005421615096395938,0.013530951948584669,0.0034754407112248253,0,
124790,-0.0010592782249477795,0.011774796203373405,0.0027650091247686803,0,
124793,-0.001983137516624711,0.005305040401045513,0.001346059253276799,0,
124797,-0.0022043584410452732,0.0018389147588004917,0.0003791421758556901,0,
124801,-0.002533333937579152,-0.0026756364338171856,-0.00031053344891265877,0,
124770,,,,0,136854
124780,,,,0,136875
124790,,,,0,136876
124800,,,,0,136889
124805,-0.003669256725186032,-0.01293805226817124,0.000774744747930628,0,
124809,-0.004540810735996992,-0.021630084189202314,0.0008758616158211496,0,
124813,-0.003450195158971492,-0.02200872571133461,-0.0014013412756121446,0,
124817,-0.0019481047524619877,-0.0143401159812937,-0.00015238856456689653,0,
124821,-0.0035228459831848635,-0.005539314935026685,0.002291093271607092,0,
124825,-0.006689869501640411,-0.0041399215252972965,0.0020116209075514146,0,
124810,,,,0,136887
124820,,,,0,136877
124829,-0.007016802172931769,-0.007945301125819704,0.004745581221769962,0,
124833,-0.003839409263916571,-0.007276752160844335,0.010386476319954568,0,
124836,-0.0015142251428974518,-0.0018761312609489877,0.0118002344392229,0,
124840,-0.0006768609943462733,0.0036384471964079346,0.00869184481465185,0,
124844,0.0017151461954215685,0.008526661561459203,0.006000124105947857,0,
124848,0.0037340342916107883,0.010106419656251031,0.005682692733195216,0,
124852,0.00341438305359687,0.008618726656158593,0.0043222483187084215,0,
124856,0.0008954453894014502,0.0051762008377438384,0.0020028310587524856,0,
124860,-0.0008701329684400738,0.0029449277478850178,0.0023265145277972243,0,
124864,0.001137446786148577,0.006210311877090202,0.0027778581678549463,0,
124830,,,,0,136865
124840,,,,0,136863
124850,,,,0,136859
124860,,,,0,136859
124868,0.0012635004811597517,0.008851371447250234,0.0020487070812138797,0,
124872,-0.00275066108570432,0.005084808463064583,0.002559987787238538,0,
124875,-0.003528559457828928,0.0013879349630476767,0.003551339661479719,0,
124879,-0.0023527898751274368,-0.00017431233010123393,0.003159549589490218,0,
124883,-0.0017676510616599916,-0.001343301762011695,0.0033552190404669835,0,
124870,,,,0,136859
124880,,,,0,136872
124887,0.0008011516046098066,0.0001269158984569252,0.004333426339675733,0,
124891,0.0009832658135026096,0.0002826098578654346,0.0022781834476131024,0,
124895,-0.0016039836249448491,0.0015627876183099687,0.0010456118804599568,0,
124899,-0.00027442494441531906,0.0003652074716238296,-0.0014854128633260966,0,
124903,0.003179439389832117,-0.009398646734525062,-0.00892596468890211,0,
124907,0.00239156705392074,-0.014951729227077326,-0.009440158862448755,0,
124911,-0.00043262435293167645,-0.01307496286201637,-0.00379504905372699,0,
124915,-0.0020789407476646815,-0.008521826071837157,-0.0013028475437824039,0,
124918,-0.0029030687754497686,-0.001868544959089391,-0.0013594825785610276,0,
124922,-0.0019385642799611968,0.004589412974184359,-0.0008721565972973078,0,
124926,0.00047113658429187577,0.010288192144441766,0.0010731322315485625,0,
124890,,,,0,136872
124900,,,,0,136870
124910,,,,0,136884
124920,,,,0,136908
124930,0.0024558322162919755,0.011820231375548662,0.0020351643846255874,0,
124934,0.002432291476763382,0.00910355189328671,0.0006387973932711344,0,
124938,0.0020622551518886256,0.010384537323708365,-0.0013793211967015884,0,
124942,0.002948104853333966,0.017838700587728074,-0.002194000840969379,0,
124946,0.0030937539739627207,0.023435885519198063,-0.002276800378735344,0,
124930,,,,0,136921
124940,,,,0,136921
124950,0.0015921650288073241,0.01914311404901614,-0.0023336152111095576,0,
124954,0.00047022493144777133,0.009366915204946924,-0.0013760615885697602,0,
124958,0.002057339421449811,0.006243731940853259,0.0013624969366847761,0,
124961,0.0033133538119537453,0.010040728850268632,0.003670851279938936,0,
124965,0.002221780768851711,0.013247699917092959,0.003139789652851638,0,
124969,0.0010998270533497667,0.010422006569565045,0.0008095339848968874,0,
124973,-0.00026694888364975355,0.003459059358251082,-0.0012599061773886644,0,
124977,-0.0007889803046485788,0.0008120902673840469,-0.001513275220980187,0,
124981,0.00027776315131022855,0.0014429577746191136,-0.0013308182490349707,0,
124985,0.00036618997777937423,0.0009287847134866745,-0.0027206508468968216,0,
124950,,,,0,136946
124960,,,,0,136980
124970,,,,0,136988
124980,,,,0,137025
124989,0.0005174123810723907,0.001488443514895188,-0.0070965562597267995,0,
124993,0.003390158229883866,-0.0012314747360173683,-0.010350249710128628,0,
124997,0.006016436560729699,-0.008245599711385054,-0.006669650458592746,0,
125001,0.00509170166191375,-0.006631625608429559,-0.0016916828835803477,0,
125004,0.0037196839100938073,0.006588764563190352,0.0018537570530806624,0,
125008,0.00395409382819889,0.019700649611264165,0.00512233197242104,0,
125012,0.002668186923731386,0.021913153663289275,0.0053322822461040476,0,
125016,-0.0009996660755837716,0.016763500071693915,0.002295829568980501,0,
125020,-0.0045670111422210224,0.01207592767592347,-0.0014825577282566726,0,
125024,-0.0044366207376485,0.006305766575815497,-0.0029492755821127203,0,
125028,0.0005170749306381284,0.0030334085640135733,-0.0020431861005140994,0,
124990,,,,0,137052
125000,,,,0,137073
125010,,,,0,137101
125020,,,,0,137148
125032,0.005160666282728932,0.00914386492657071,-0.0018901055404410005,0,
125036,0.004819759579717697,0.016424357493738384,-0.0023000822456841485,0,
125040,0.0018674481315320568,0.013829947232974593,-0.0011062561469787624,0,
125043,-0.0017019197784742257,0.006503232794988989,-0.0004361949214898575,0,
125047,-0.0054733645439138945,0.0012028601402560568,-0.000908169776885237,0,
125030,,,,0,137165
125040,,,,0,137153
125051,-0.0046784031707207685,-0.002954591627481573,-0.0014419162403077335,0,
125055,0.0006265845300928996,-0.001009856993783309,-0.001794970073223795,0,
125059,0.0048510421350626,0.00966939221230323,-0.0005103703953911465,0,
125063,0.004500602153944988,0.013716708370046238,0.0007700089217651529,0,
125067,0.0009101976318741656,0.003864053245362875,0.0009426499668366839,0,
125071,-0.00218347783378936,-0.005205004195745655,0.0005915484294561346,0,
125075,-0.0034851987116470973,-0.00801579278860931,-0.0017191725977223071,0,
125079,-0.0033420051927374184,-0.01409028523248912,-0.005389986578135414,0,
125083,-0.0023436330632927715,-0.02312168887260002,-0.007002648815423007,0,
125086,-0.002779154266666972,-0.02758505549095469,-0.004311698558177007,0,
125050,,,,0,137188
125060,,,,0,137195
125070,,,,0,137217
125080,,,,0,137236
125090,,,,0,137260
125090,-0.005255149207563203,-0.0281544862286931,-0.0009918284703581692,0,
125094,-0.004333186969371017,-0.024187205822515434,-0.00020516036626838652,0,
125098,0.0004293969522377594,-0.010969972210018941,-0.0008305364496282719,0,
125102,0.002961880238406045,0.004828038353296371,-0.0024690369182515104,0,
125106,0.002347844039003455,0.01022534659813612,-0.001946818408409795,0,
125100,,,,0,137281
125109,,,,0,137297
125110,0.001621329160672258,0.008766602924803024,0.0006178631785185296,0,
125114,0.0017264549348714464,0.011577144376802018,0.002103855208743982,0,
125118,0.003050421345275889,0.01897716431845975,0.0036645030464744766,0,
125122,0.004261975160022247,0.021807194200806013,0.004203300934104953,0,
125126,0.0022690404095176975,0.009976399172634931,0.002489386050523651,0,
125129,-0.0010931037328014703,-0.005755499531280073,0.000472275524513982,0,
125133,-0.001824252043173269,-0.008100546785533513,0.0002614719079506722,0,
125137,-0.0011507735701172805,-0.0041722980711322855,-0.0026925988482765506,0,
125141,-0.0014277809779866812,-0.006017966525884599,-0.006938204789457975,0,
125145,-0.0009302667508818141,-0.009351081673130146,-0.003241120845230039,0,
125149,0.0014207774228516268,-0.007574177633675294,0.0031180318307727217,0,
125119,,,,0,137313
125130,,,,0,137328
125139,,,,0,137354
125149,,,,0,137378
125153,0.0025374617509189568,-0.0037425391822329956,0.006409833225172995,0,
125157,0.0007152779538226461,-0.001566448972972534,0.007326381692855044,0,
125161,-0.0011218169012320311,-0.001505096309110332,0.005406572855276293,0,
125165,-0.0020808642272499567,-0.008918954252760791,0.002003225608203568,0,
125168,-0.0039115462295779,-0.0178621952084006,-0.0018175951652901479,0,
125172,-0.005333190820296818,-0.015535214294568611,-0.0030566536701471803,0,
125176,-0.0040875260444391825,-0.008186125665421429,-0.0009268039405113393,0,
125180,-0.0010531113464770092,-0.004901580253463322,0.00026267296354048897,0,
125184,0.0016099926127488562,-0.0031372601392511967,-0.0015420782627843799,0,
125188,0.002471278426620982,0.0015967515938988264,-0.0035427913031751967,0,
125159,,,,0,137399
125169,,,,0,137426
125179,,,,0,137431
125189,,,,0,137444
125192,0.002094470517911229,0.005134110413686166,-0.0023913580349755326,0,
125196,0.0018080673884257603,0.00473216143898636,-0.0003115818656580782,0,
125200,0.0017150023189156371,0.004467654226167905,-6.249418402276552e-05,0,
125204,0.0015198820413993008,0.00262808385899449,-2.8598574158822387e-06,0,
125208,0.0019037122294180975,0.0010243910041567439,0.0010068918863704313,0,
125199,,,,0,137475
125209,,,,0,137483
125211,0.0031332620635011743,0.0010757748932617162,0.0029588210128710657,0,
125215,0.0031954892362366927,-0.0013638699411129274,0.0042571637261602235,0,
125219,0.0009926291597973647,-0.002369583920167173,0.002215877689020679,0,
125223,-0.0014821940368152653,0.0006614757535059468,0.00014269228757132768,0,
125227,0.0007651427430003244,0.0017677360021299826,0.0005047803320396005,0,
125231,0.0054756985547448345,-0.0025677003623201244,-0.0004304270334148097,0,
125235,0.0047853134361142136,-0.004814776774729523,-0.0005395259816095566,0,
125239,0.0016093598627924255,0.0012802796289141938,0.0024886070415452988,0,
125243,0.0006852990622943089,0.008694117879150198,0.005646489061276655,0,
125247,-0.00014284190026414567,0.007589745511327628,0.005908820743985604,0,
125251,-0.0010808707244019944,0.0017361309589762897,0.003829516436098468,0,
125219,,,,0,137516
125229,,,,0,137513
125239,,,,0,137542
125249,,,,0,137544
125254,-0.0007223861512507534,0.0018825430848017355,0.0035710347099653372,0,
125258,0.0001548424513838631,0.006974504517106794,0.0042446634787211834,0,
125262,-0.0005747570760660237,0.010515018817406574,0.0028515298375570985,0,
125266,-0.0025219509452952815,0.007595488732354827,-0.0009118318487084387,0,
125270,-0.002414730701949419,0.0014800406621100493,-0.0038329106616360464,0,
125259,,,,0,137587
125269,,,,0,137593
125274,-0.0009194083300472222,-0.0012045881486928423,-0.002794799816855209,0,
125278,-0.0025119449404049643,-0.006066282810213597,-0.004388112702288782,0,
125282,-0.005669031982177275,-0.01097387430874086,-0.014982587878558384,0,
125286,-0.003999431768355044,-0.007826911351379362,-0.02620510237199694,0,
125290,0.001104737067560313,0.0003158987682065906,-0.024556671860780727,0,
125294,0.0042076766736638405,0.0069310597536555996,-0.006447921601071688,0,
125297,0.0052536458591504465,-0.002328273927356239,0.017954313871122368,0,
125301,0.004692133559841105,-0.02236143344205077,0.02887903645416065,0,
125305,0.0030375330151197755,-0.02396862888252116,0.01513003321079287,0,
125309,0.004931133743709237,-0.013867731686045826,-0.009483221453526453,0,
125313,0.007363695022319705,-0.011662180580202186,-0.021656722614678825,0,
125279,,,,0,137621
125289,,,,0,137639
125299,,,,0,137658
125309,,,,0,137668
125317,0.00502241701305961,-0.005871116384079222,-0.016862640630643078,0,
125321,0.0014914155334416757,0.008149111359149863,-0.008453414993819741,0,
125325,-0.0014809001107132236,0.014544625084898843,-0.006186999078168748,0,
125329,-0.00038943195979934675,0.005287485285704108,-0.008233972207953438,0,
125333,0.004879055565380042,-0.005260734730084593,-0.006541063977094336,0,
125319,,,,0,137682
125329,,,,0,137702
125336,0.007321633921555937,-0.010786244994662741,0.002379395139155832,0,
125340,0.007521515603833184,-0.021895671991938315,0.009319486773208763,0,
125344,0.0053937100954363215,-0.030020598877374738,0.006844791946305662,0,
125348,-0.0010905727282857214,-0.022087348479591817,0.0009916210681601145,0,
125352,-0.004862884591659733,-0.0069992683025450475,-0.001436437691379383,0,
125356,-0.00345835397934946,-0.00321117470084209,-0.00032098093386398463,0,
125360,-0.0038441571540868136,-0.01399945988564344,-0.0016453843225255893,0,
125364,-0.007327110710598661,-0.026182430292531755,-0.00727337783457363,0,
125368,-0.009372648210364432,-0.028086832098169534,-0.008182575072612358,0,
125372,-0.008162899584673089,-0.016203461676188358,-0.004124025632137096,0,
125339,,,,0,137742
125349,,,,0,137757
125359,,,,0,137797
125369,,,,0,137814
125376,-0.0055243743357699104,-0.002955766847218211,-0.0022533909064056945,0,
125379,-0.003946301181751433,0.0009719562874868082,-0.0017247594195198557,0,
125383,-0.003346049964634612,-0.00035541282759021797,-0.001082090709306871,0,
125387,-0.001954755160577637,-0.004340377525332784,-0.0005235440536475178,0,
125391,-0.0002881678730396464,-0.008332692020226684,0.0014166946719466333,0,
125395,-0.00026976994675464994,-0.011076065671315583,0.0014830555659822164,0,
125399,-0.0033542664700839664,-0.013823840767417384,0.0013840805692008351,0,
125403,-0.007011628637418554,-0.011788915040257919,0.008438579341933844,0,
125407,-0.004700232363786805,0.0015307908922994606,0.013081985609054825,0,
125411,0.000648759953998268,0.015224122273349128,0.009625971808165074,0,
125415,7.924089512167942e-05,0.012223429150819864,0.008103634519781244,0,
125379,,,,0,137841
125389,,,,0,137862
125399,,,,0,137892
125409,,,,0,137881
125419,-0.004523434044992669,0.00010533927848310753,0.0077575787496641235,0,
125422,-0.004821537297896694,-0.0052138745637804185,0.006290964997171994,0,
125426,-0.001274039149322892,-0.0028504079658402404,0.0072675801032336396,0,
125430,-0.0007465571446790831,-0.002251261860369169,0.008181260381443678,0,
125434,-0.002052876015467442,-0.005852257053002852,0.007968179623408955,0,
125419,,,,0,137847
125429,,,,0,137744
125438,-0.0009519694974735593,-0.0076848141352887644,0.006253231953284061,0,
125442,0.0004453116829706838,-0.008996469371446825,0.002098766537326824,0,
125446,0.00047087382497124075,-0.009578177648670305,-0.00046362313599163096,0,
125450,0.001548025227506411,-0.00150389245375937,-0.0021035848126563506,0,
125454,0.002631127418224244,0.011260043713951173,-0.003861146972033991,0,
125458,0.001383641469562602,0.017547047893275103,-0.0027714008536592893,0,
125461,0.0007701525227031825,0.017265929506936395,-0.00010462760262380799,0,
125465,0.001457802576162348,0.013752456508342892,0.001710241831122894,0,
125469,0.0019185521298821229,0.013376753030397648,0.0014153268557794974,0,
125473,0.004317525271634093,0.011696970557132147,-0.0017755722725604772,0,
125439,,,,0,137586
125449,,,,0,137400
125459,,,,0,137180
125469,,,,0,136976
125449,,,,1,
125477,0.006738593490978495,-0.002217702160378643,-0.00443840606399043,0,
125481,0.006867437684435318,-0.01838396195322778,-0.0023461580899387657,0,
125485,0.008215389881201851,-0.030702758221654136,0.0007805407368100259,0,
125489,0.010346678194805725,-0.04070998547388616,0.0009257830906733711,0,
125493,0.009135914244915888,-0.04034084656630732,-0.0016845959621413498,0,
125479,,,,0,136780
125489,,,,0,136574
125497,0.008838418793117198,-0.026990464995974683,-0.0050530036073875295,0,
125501,0.011472427362681059,-0.009522299037924675,-0.004938470262689343,0,
125504,0.008974847252962492,0.003616270699060564,-0.0007040197554019356,0,
125508,0.0023874507503812703,0.007116555509792288,0.005121659217537294,0,
125512,-0.0020253269582399813,0.0035292335765024774,0.007925085522444753,0,
125516,-0.0032713330966368526,0.0022477823055280233,0.005372574195234209,0,
125520,-0.0031430541747811125,0.004390246997286074,0.0020168821285938276,0,
125524,-0.004045870841256738,0.0075446724093235495,0.002026984441411972,0,
125528,-0.007020639471123857,0.004885799560833348,0.0036848775578249005,0,
125532,-0.008855619584105523,-0.005698173472338031,0.004230822762318703,0,
125536,-0.004151236408417414,-0.006910617992797796,0.00364771284387147,0,
125499,,,,0,136406
125509,,,,0,136261
125519,,,,0,136121
125529,,,,0,136030
125540,0.0019988869200634474,0.003972461862438159,0.0013854348067753042,0,
125544,0.0028291519563575784,0.012626482666596939,-0.0013090584055496512,0,
125547,0.0006367506795028621,0.01371215964890915,-0.0018310959951518824,0,
125551,-0.002119884672045158,0.010175158134952067,-0.00047522269940872275,0,
125555,-0.0046884597432437225,0.006249620135394096,0.0012940291903563717,0,
125539,,,,0,135952
125549,,,,0,135900
125559,-0.005714175924000475,0.0053574923114019235,0.0005264824009655056,0,
125563,-0.004088801656154661,0.00958729877474207,-0.001260963924018893,0,
125567,-0.002396347538285659,0.01291845487202048,0.0017073203195464848,0,
125571,-0.0038346449297083085,0.010354159567881549,0.004433280361086561,0,
125575,-0.0057341602663090185,0.004524569079632723,-0.0013420950191705971,0,
125579,-0.004958875054206446,0.001649602237660197,-0.00861744851336027,0,
125583,-0.0019127921996677788,0.004014495444107702,-0.005642974429479891,0,
125587,0.004050334180826232,0.0037954587234976245,0.004877058860057293,0,
125590,0.00935766771739377,-0.0015737385165701667,0.012830364924447474,0,
125594,0.005771423498715733,-0.0030083081141567547,0.012692952815469671,0,
125598,-0.0014292546240604054,0.0016625852973914945,0.004448461120794223,0,
125559,,,,0,135845
125569,,,,0,135828
125579,,,,0,135804
125589,,,,0,135799
125602,-0.0019360207560358278,0.0051918025504673615,-0.003509110420197803,0,
125606,0.0017785640653508183,0.007851851284746303,-0.004794342605803137,0,
125610,0.0029300337858694236,0.009887809444848461,-0.004752080152631705,0,
125614,-1.7022933042065702e-05,0.00362528607196122,-0.009330855462816423,0,
125618,-0.0022839603492382787,-0.0061078218055481415,-0.014901062611812566,0,
125622,-0.0010077325595672093,-0.007298896342374128,-0.014307234319685835,0,
125626,0.0020663410359627044,0.0010447762496692548,-0.0065066913734524445,0,
125629,0.004528548011498823,0.011372038703297616,0.003433718833865118,0,
125633,0.003972227641352077,0.014587299553764588,0.008218951924008372,0,
125637,-0.0005247328204096569,0.01153081658549615,0.008012515031127043,0,
125599,,,,0,135792
125609,,,,0,135772
125619,,,,0,135767
125629,,,,0,135769
125639,,,,0,135787
125641,-0.00426169298922785,0.00832666059057674,0.0077505996128369725,0,
125645,-0.000948391069060639,-0.0013851241838946926,0.007658563423961651,0,
125649,0.004675754697896828,-0.014996941983405954,0.006135314931159319,0,
125653,0.005700084169235176,-0.014896510671782881,0.004501267165696321,0,
125657,0.000958839216884777,-0.00980262355955519,0.0050738004958156,0,
125649,,,,0,135794
125659,,,,0,135811
125661,-0.00650887169183012,-0.013064278281389896,0.006207717755932013,0,
125665,-0.010177861187514403,-0.015440198247640868,0.005136076322606459,0,
125669,-0.009145567727925408,-0.016215911863053822,0.0009840548241429603,0,
125672,-0.006170460605429029,-0.018242483624917316,-0.0036045288688267563,0,
125676,-0.001020227891081249,-0.018875736267230714,-0.00666596682868717,0,
125680,0.0036084875481977585,-0.021334239032488433,-0.007947800632606472,0,
125684,0.0019271504305425902,-0.023903320648785087,-0.006156855417629392,0,
125688,-0.00137034487008858,-0.022295160377803658,-0.0037475921315451854,0,
125692,-0.00042439014306883127,-0.013306351144007689,-0.0022323448508686228,0,
125696,0.0010719201392066502,0.001668856823363818,-4.7227196076138345e-05,0,
125679,,,,0,135866
125689,,,,0,135895
125699,,,,0,135907
125700,0.0009273533178940641,0.012674057109173908,0.0005922540403993093,0,
125704,0.0010165114673612585,0.017948923026800845,-0.00047046928418215117,0,
125708,0.002125338075654626,0.01820688532984427,0.0005599798062490002,0,
125712,0.002900894462146475,0.01245694434914979,0.001567077921975829,0,
125715,0.0024006506421019314,0.008450193921227811,0.0008107308821658776,0,
125719,0.0011858123443840851,0.009656313659789362,0.001118681662868326,0,
125709,,,,0,135933
125719,,,,0,135912
125723,-0.0010020313919230084,0.00744287907814023,0.0024814809787700176,0,
125727,-0.003777693379023672,-0.00036436022003361046,0.004537489234994363,0,
125731,-0.003271346017644672,-0.00484211608384344,0.005551405341528898,0,
125735,-0.0001491425458961526,-0.0014576039300462362,0.0035473636372007344,0,
125739,-0.00155736968630249,0.0024059769555195842,0.001689176551098459,0,
125743,-0.006099558774401159,-0.002086489416763815,0.002008059241349308,0,
125747,-0.008715343272928,-0.011767363998210545,0.004340720089499234,0,
125751,-0.009996872729665651,-0.01518082236332896,0.007226594071300191,0,
125754,-0.0076805443599642365,-0.009518433420999006,0.006669002280563274,0,
125758,-0.0048737518201739105,-0.0062323917901934145,0.003666550194483892,0,
125729,,,,0,135918
125739,,,,0,135932
125749,,,,0,135928
125759,,,,0,135948
125762,-0.006183850434807514,-0.009887733975662893,0.0027305151103474146,0,
125766,-0.004206390225051759,-0.016297493415894593,0.0022660615321439537,0,
125770,0.001808485652431524,-0.019056568295813037,0.0014513363877758922,0,
125774,0.0023250973777129147,-0.009025124802702678,0.004288193997819573,0,
125778,-0.0011374514487032528,0.004808094498182758,0.006096206047959796,0,
125769,,,,0,135933
125778,,,,0,135940
125782,-0.0014266893629021338,0.007559067645655393,0.002702364593221429,0,
125786,0.0008628640182150038,0.004573353684159898,-0.0008041773273840813,0,
125790,0.0012708873215231398,0.0002620039997944801,-0.002695397972737934,0,
125794,-0.001992729126788273,-0.010016603971029436,-0.003872240525856191,0,
125797,-0.004764240829170929,-0.01629263702340289,-0.003947734028527605,0,
125801,-0.0031299704736390543,-0.010742902190977066,-0.0035155451773956625,0,
125805,-0.0006244240786954514,-0.0061071840067641325,-0.0038265063805097144,0,
125809,6.292264576923667e-05,-0.0037494298788143254,-0.004015709001053469,0,
125813,0.001327948622834918,0.004894198171820019,-0.0029815065922941253,0,
125817,0.00377427381254547,0.01637261110345367,-0.0036521999502329983,0,
125821,0.004221449280836231,0.020910118454635196,-0.006020199034646734,0,
125788,,,,0,135949
125798,,,,0,135943
125808,,,,0,135951
125818,,,,0,135944
125825,0.0020532044319852005,0.014746873430825147,-0.005650333508177868,0,
125829,0.0011824238784374774,0.007506409275354287,-0.002826083875199198,0,
125833,0.0013224833474831943,0.006891186776119884,-0.0019846881384890658,0,
125837,-0.0014446406314239102,0.0072253305118494815,-0.003093962769511127,0,
125840,-0.005313548837878934,-0.0006991759916070706,-0.0004456012423768585,0,
125844,-0.003863255351442274,-0.011650312653059824,0.006248062446153196,0,
125848,0.0006403351651096401,-0.015215710307839636,0.009084605122472694,0,
125852,0.0019731440462591454,-0.010305699694459047,0.004835071122073847,0,
125856,0.002842007959438231,0.0028140180762834532,0.0007419214357211323,0,
125860,0.005038521849971445,0.015543903874280396,0.0008695862225719664,0,
125828,,,,0,135951
125838,,,,0,135975
125848,,,,0,135989
125858,,,,0,136007
125864,0.005214678621410007,0.01555230808053576,0.00020320254711822527,0,
125868,0.0031352048471265936,0.007272589179425637,-0.0024593811682637745,0,
125872,0.0009258298486504168,0.0046169939816094185,-0.002458165382140387,0,
125876,0.00020266889441133973,0.009316280677241995,-0.0011188641775022046,0,
125880,0.00045681544694253784,0.010545326061663918,-0.0032067791399609247,0,
125868,,,,0,136046
125878,,,,0,136091
125883,0.0005127095458173914,0.0063029539221250985,-0.005567966584744899,0,
125887,-0.00013960851419403397,0.004645087683944116,-0.004288380581218804,0,
125891,-0.0009688286059992279,0.003440541314153389,-0.0028515816611403844,0,
125895,0.0002901649792905747,0.0018488340662119462,-0.003127014307681336,0,
125899,0.0020335342424022684,0.006308453428606864,-0.0025899408453741446,0,
125903,0.002213566192971639,0.015547359209415301,-0.0028249086627089026,0,
125907,0.001845914855204689,0.02260518740030326,-0.00636741806870908,0,
125911,0.001508666857013008,0.022237385105947194,-0.009159632785393113,0,
125915,0.0021873523645533632,0.018005331216396137,-0.008893958352834214,0,
125919,0.0046501563558721815,0.009730382065399557,-0.009430618598078172,0,
125922,0.004286359012961927,-0.0007950307856523509,-0.010251773884051657,0,
125888,,,,0,136125
125898,,,,0,136142
125908,,,,0,136175
125918,,,,0,136193
125926,-0.0035517726613464307,-0.002898399401337848,-0.00706864246941924,0,
125930,-0.00931635288136723,0.0013868659688207607,-0.005081713707842522,0,
125934,-0.004607103342010976,0.005288052022552225,-0.007780471072092288,0,
125938,0.002288812720024569,0.005741444299980358,-0.008314569241412412,0,
125942,0.0037895869774264845,0.0056347296602163865,-0.00732726087827737,0,
125928,,,,0,136227
125938,,,,0,136245
125946,0.00263626267497008,0.009285875600864024,-0.005704276969645733,0,
125950,0.0026828813101105187,0.015172832845664619,-0.0033929351088136384,0,
125954,0.0035309163788549425,0.01955838852295999,-0.004016392484170017,0,
125958,0.003171245791365962,0.01649578146541497,-0.0038090418391823477,0,
125962,0.0016956057471967378,0.008604098996161103,-0.001844463378932626,0,
125965,-0.0010931532790552367,0.0028390449851891653,-0.0019489622139088059,0,
125969,-0.0038625395430955667,0.0011122190634837992,-0.0033592306736078548,0,
125973,-0.0018140677249435244,0.0062647462267722,-0.003914562236041752,0,
125977,0.001990365268955241,0.016222796910466464,-0.0042066084243654045,0,
125981,0.002759629134227226,0.022155586226118018,-0.006400730005072325,0,
125985,0.0018129218470427366,0.01823580250454304,-0.008513309250862272,0,
125948,,,,0,136276
125958,,,,0,136300
125968,,,,0,136307
125978,,,,0,136352
125989,0.0005572305068437533,0.005632330531561092,-0.007677436802812715,0,
125993,0.00046006373954199375,-0.006636884407008381,-0.007100857365762131,0,
125997,0.0006410170426089934,-0.007598624333097881,-0.007367556888743215,0,
126001,-0.00012309091728945898,0.002029629918093079,-0.005819835053238465,0,
126005,0.00028890451194862887,0.012281012874217456,-0.004097457125545739,0,
125988,,,,0,136398
125998,,,,0,136405
126008,0.0018647391534569735,0.015633438261577037,-0.0033846251444662467,0,
126012,0.0022786545479521747,0.0090307422183602,-0.00336261737745544,0,
126016,6.454474109085506e-05,0.00040647870202725755,-0.004275432661341755,0,
126020,-0.0029994071427497104,-0.0030668376897518,-0.004894167934042959,0,
126024,-0.0032075775183275645,-0.0038289645656002236,-0.004140801735617539,0,
126028,-0.00180057853994664,-0.004705201750039745,-0.00019484860667492998,0,
126032,-0.0011154903560111062,-0.004093920193603218,0.0028599515185453173,0,
126036,-0.0012618592803949058,-0.0011443944732092426,-0.0011599435506211841,0,
126040,-0.00018810915225442315,0.005057725844868521,-0.006740784018050755,0,
126044,0.003318207954487784,0.015066268513436398,-0.009578764813644447,0,
126008,,,,0,136440
126018,,,,0,136464
126028,,,,0,136479
126038,,,,0,136505
126047,0.005196226957812744,0.01657143308088438,-0.009746535240423793,0,
126051,0.005291994081112361,0.012792422976608542,-0.0067360889253411105,0,
126055,0.006494560208572864,0.021074724002201783,-0.0031952375152460577,0,
126059,0.007050384288849965,0.032322638742823706,-0.0036799084348430877,0,
126063,0.006153198905618273,0.030712120651292363,-0.007304769446371928,0,
126067,0.005490640098368971,0.019636389509210428,-0.006785569542442166,0,
126048,,,,0,136533
126058,,,,0,136547
126071,0.006543214064627545,0.0054438655880986175,-0.005046692766309702,0,
126075,0.00814104345500688,-0.0068027240911368025,-0.006168137573216409,0,
126079,0.006008348193203283,-0.011824589509152883,-0.005673756193787877,0,
126083,0.0010725543403706794,-0.012517707920155718,-0.003808137534756062,0,
126087,-0.0014649502453334406,-0.010744032212046228,-0.0029141072939658508,0,
126090,-0.0008327247735669951,-0.006026513589658666,-0.003104873666891994,0,
126094,0.001366899796808707,0.001707952043587646,-0.0013391564546864632,0,
126098,0.003769589301465537,0.012087685672476312,0.0026784109387261446,0,
126102,0.005148559704589162,0.022473909010690907,0.0042450659094285526,0,
126106,0.003973373893166321,0.031557561488604335,0.0032053819519874682,0,
126068,,,,0,136570
126078,,,,0,136599
126088,,,,0,136623
126098,,,,0,136631
126110,0.0013113082549238708,0.03237913674715731,0.0019315882893967407,0,
126114,0.002043778385860673,0.02475126847305642,0.0016002806745103737,0,
126118,0.004235835967426715,0.015188459471247473,0.001676159543282818,0,
126122,0.003745355350124213,0.005190316008565343,0.001102584528600764,0,
126126,0.002682120664630694,0.0009997422198302353,0.003179219585021875,0,
126130,0.0023685834227230584,0.003951035543243719,0.0059574626029539335,0,
126133,0.00044506858619686174,0.007310820310910238,0.0030554164165211284,0,
126137,-0.0037475405518234695,0.007272158447618526,-0.0014020245088294803,0,
126141,-0.0071755416798169325,0.005552905184814438,-0.0028210552244984644,0,
126145,-0.007182864651301912,0.0029323537294030366,-0.002192855761093543,0,
126108,,,,0,136666
126118,,,,0,136685
126128,,,,0,136708
126138,,,,0,136724
126148,,,,0,136740
126149,-0.004290708841306445,-0.0044848498822736005,-0.0029900136979030267,0,
126153,-0.0022519978362238735,-0.013626860528793916,-0.005929376364359529,0,
126157,-0.00226559091959766,-0.018829009711172517,-0.00498185576391702,0,
126161,-0.002918273753271139,-0.024583267256593544,-0.0017477998303887243,0,
126165,-0.0025866666708997954,-0.026514185054308914,0.000708319117493722,0,
126158,,,,0,136768
126168,,,,0,136775
