timestamp_ms,x_g,y_g,z_g,beat_event
482503,0.3725413900968948,-1.5261692225528343,-0.19176775768673227,0
482507,0.37438773174639506,-1.5110627908751049,-0.19042496375982298,0
482511,0.3705271992065308,-1.505523765926604,-0.19092851148241397,0
482515,0.3728770885786221,-1.5122377355611505,-0.18941786831464102,0
482519,0.37690547035934996,-1.5211337453269245,-0.1874036774242771,0
482523,0.3733806363012131,-1.5265049210345616,-0.18421454184786754,0
482527,0.3767376211184863,-1.535233081559472,-0.18203250171663996,0
482531,0.37656977187762264,-1.5301976043335621,-0.18589303425650416,0
482535,0.37270923933775846,-1.525329976348516,-0.18387884336614022,0
482539,0.375898374914168,-1.505523765926604,-0.18455024032959486,0
482543,0.3745555809872587,-1.5031738765545128,-0.1801861600671397,0
482546,0.3693522545204852,-1.5197909514000152,-0.18555733577477682,0
482550,0.37186999313344016,-1.5224765392538337,-0.18152895399404897,0
482554,0.37438773174639506,-1.5142519264515144,-0.18505378805218584,0
482558,0.36952010376134886,-1.5285191119249255,-0.17985046158541237,0
482562,0.37522697795071336,-1.510055695429923,-0.18169680323491263,0
482566,0.3725413900968948,-1.5167696650644693,-0.17817196917677577,0
482570,0.3733806363012131,-1.5239871824216067,-0.18303959716182192,0
482574,0.3685130083161669,-1.5308690012970168,-0.18085755703059433,0
482578,0.36364538033112076,-1.5280155642023345,-0.18001831082627603,0
482582,0.3681773098344396,-1.5486610208285647,-0.17800411993591211,0
482586,0.3688487067978942,-1.548493171587701,-0.18203250171663996,0
482589,0.36079194323643854,-1.5558785381857023,-0.18068970778973067,0
482593,0.3623025864042115,-1.5402685587853817,-0.18068970778973067,0
482597,0.36700236514839396,-1.5419470511940183,-0.18538948653391316,0
482601,0.3623025864042115,-1.5343938353551536,-0.17565423056382085,0
482605,0.3596169985503929,-1.5323796444647897,-0.18287174792095826,0
482609,0.3589456015869383,-1.5369115739681085,-0.18068970778973067,0
482613,0.35542076752880136,-1.5630960555428397,-0.1793469138628214,0
482617,0.35911345082780194,-1.5543678950179294,-0.17531853208209353,0
482621,0.35575646601052874,-1.5607461661707485,-0.17447928587777523,0
482625,0.355588616769665,-1.564438849469749,-0.17699702449073013,0
482628,0.3562600137331197,-1.562928206301976,-0.18337529564354924,0
482632,0.35424582284275574,-1.549668116273747,-0.17968261234454871,0
482636,0.35659571221484704,-1.5595712214847028,-0.17481498435950255,0
482640,0.35743495841916534,-1.5706492713817044,-0.18404669260700388,0
482644,0.3601205462729839,-1.5790417334248874,-0.18455024032959486,0
482648,0.35743495841916534,-1.5800488288700694,-0.17917906462195773,0
482652,0.35860990310521096,-1.5735027084763866,-0.18572518501564048,0
482656,0.3552529182879377,-1.5820630197604333,-0.181025406271458,0
482660,0.35575646601052874,-1.5763561455710688,-0.1835431448844129,0
482664,0.35777065690089266,-1.5709849698634317,-0.18690012970168612,0
482668,0.35911345082780194,-1.5562142366674296,-0.18555733577477682,0
482671,0.3584420538643473,-1.5503395132372015,-0.18371099412527656,0
482675,0.36532387273975736,-1.565445944914931,-0.18606088349736782,0
482679,0.36112764171816586,-1.5573891813534753,-0.18488593881132218,0
482683,0.35659571221484704,-1.5632639047837034,-0.18119325551232165,0
482687,0.3621347371633478,-1.556046387426566,-0.1865644312199588,0
482691,0.36330968184939344,-1.549668116273747,-0.18455024032959486,0
482695,0.3680094605935759,-1.5508430609597925,-0.18857862211032272,0
482699,0.365995269703212,-1.5588998245212482,-0.18639658197909514,0
482703,0.3656595712214847,-1.555542839703975,-0.17985046158541237,0
482707,0.37002365148393984,-1.5380865186541541,-0.18606088349736782,0
482711,0.36498817425803004,-1.5270084687571526,-0.18052185854886701,0
482714,0.3584420538643473,-1.53422598611429,-0.18035400930800335,0
482718,0.36414892805371174,-1.5382543678950178,-0.18639658197909514,0
482722,0.3629739833676661,-1.5414435034714273,-0.18119325551232165,0
482726,0.35911345082780194,-1.5454718852521552,-0.18455024032959486,0
482730,0.3601205462729839,-1.5669565880827039,-0.18471808957045852,0
482734,0.36247043564507514,-1.5513466086823835,-0.18119325551232165,0
482738,0.3634775310902571,-1.5511787594415198,-0.18203250171663996,0
482742,0.36834515907530324,-1.5442969405661096,-0.18606088349736782,0
482746,0.3631418326085298,-1.5407721065079727,-0.18387884336614022,0
482750,0.36498817425803004,-1.5275120164797436,-0.18639658197909514,0
482754,0.3646524757763027,-1.5288548104066528,-0.18622873273823148,0
482757,0.3621347371633478,-1.540100709544518,-0.18471808957045852,0
482761,0.3668345159075303,-1.55302510109102,-0.1827038986800946,0
482765,0.37035934996566716,-1.5270084687571526,-0.18673228046082246,0
482769,0.36700236514839396,-1.5354009308003356,-0.18119325551232165,0
482773,0.3646524757763027,-1.5367437247272449,-0.18001831082627603,0
482777,0.3651560234988937,-1.5197909514000152,-0.18589303425650416,0
482781,0.36666666666666664,-1.541611352712291,-0.18773937590600442,0
482785,0.3693522545204852,-1.5392614633401998,-0.18505378805218584,0
482789,0.365995269703212,-1.549668116273747,-0.18538948653391316,0
482793,0.3648203250171664,-1.5379186694132905,-0.18236820019836728,0
482796,0.3648203250171664,-1.5359044785229266,-0.18337529564354924,0
482800,0.3617990386816205,-1.5402685587853817,-0.18035400930800335,0
482804,0.36280613412680246,-1.554032196536202,-0.1785076676585031,0
482808,0.3612954909590295,-1.5600747692072938,-0.18052185854886701,0
482812,0.36280613412680246,-1.562928206301976,-0.1801861600671397,0
482816,0.35995269703212024,-1.5753490501258869,-0.18371099412527656,0
482820,0.3606240939955749,-1.5691386282139315,-0.1882429236285954,0
482824,0.35911345082780194,-1.556549935149157,-0.18387884336614022,0
482828,0.3646524757763027,-1.5419470511940183,-0.18455024032959486,0
482832,0.365491721980621,-1.5605783169298848,-0.17817196917677577,0
482836,0.36196688792248416,-1.5572213321126116,-0.18790722514686808,0
482839,0.3631418326085298,-1.5503395132372015,-0.1835431448844129,0
482843,0.3646524757763027,-1.5377508201724268,-0.18606088349736782,0
482847,0.3648203250171664,-1.5318760967421987,-0.18589303425650416,0
482851,0.3693522545204852,-1.5392614633401998,-0.18807507438773174,0
482855,0.3733806363012131,-1.5374151216906995,-0.19260700389105057,0
482859,0.3663309681849393,-1.535233081559472,-0.18303959716182192,0
482863,0.3688487067978942,-1.5367437247272449,-0.18371099412527656,0
482867,0.3681773098344396,-1.5454718852521552,-0.18169680323491263,0
482871,0.3717021438925765,-1.5318760967421987,-0.18236820019836728,0
482875,0.36700236514839396,-1.534729533836881,-0.1835431448844129,0
482879,0.3690165560387579,-1.5260013733119706,-0.17682917524986647,0
482882,0.36448462653543906,-1.5290226596475165,-0.18052185854886701,0
482886,0.3639810788128481,-1.5377508201724268,-0.1775005722133211,0
482890,0.36750591287098494,-1.5377508201724268,-0.17968261234454871,0
482894,0.35827420462348364,-1.540604257267109,-0.17699702449073013,0
482898,0.3617990386816205,-1.5427862973983366,-0.17649347676813915,0
482902,0.36196688792248416,-1.5483253223468374,-0.16826886396581978,0
482906,0.3596169985503929,-1.5375829709315632,-0.16810101472495612,0
482910,0.3549172198062104,-1.5615854123750668,-0.17011520561532006,0
482914,0.35911345082780194,-1.5543678950179294,-0.17531853208209353,0
482918,0.3564278629739834,-1.5620889600976577,-0.17800411993591211,0
482921,0.3507209887846189,-1.581727321278706,-0.17179369802395666,0
482925,0.3523994811932555,-1.5780346379797054,-0.1741435873960479,0
482929,0.34954604409857326,-1.5862592507820248,-0.17817196917677577,0
482933,0.35206378271152816,-1.5872663462272067,-0.1766613260090028,0
482937,0.3493781948577096,-1.6040512703135728,-0.17515068284122987,0
482941,0.35122453650720986,-1.5869306477454794,-0.17968261234454871,0
482945,0.347196154726482,-1.591630426489662,-0.17682917524986647,0
482949,0.35256733043411914,-1.587098496986343,-0.1785076676585031,0
482953,0.34870679789425496,-1.581223773556115,-0.18404669260700388,0
482957,0.35693141069657436,-1.5671244373235675,-0.18169680323491263,0
482961,0.3584420538643473,-1.557557030594339,-0.18790722514686808,0
482964,0.3604562447547112,-1.5635996032654307,-0.18639658197909514,0
482968,0.3606240939955749,-1.5646066987106126,-0.18320744640268558,0
482972,0.3567635614557107,-1.565949492637522,-0.19008926527809566,0
482976,0.365491721980621,-1.5701457236591134,-0.19126420996414129,0
482980,0.3638132295719844,-1.5464789806973371,-0.18857862211032272,0
482984,0.36196688792248416,-1.5444647898069732,-0.19311055161364155,0
482988,0.3651560234988937,-1.5283512626840619,-0.18925001907377736,0
482992,0.3680094605935759,-1.5404364080262454,-0.18723582818341344,0
482996,0.3688487067978942,-1.5404364080262454,-0.18874647135118638,0
483000,0.37086289768825814,-1.5493324177920194,-0.19092851148241397,0
483004,0.36498817425803004,-1.5280155642023345,-0.1843823910887312,0
483007,0.36784161135271226,-1.5275120164797436,-0.18572518501564048,0
483011,0.365995269703212,-1.542618448157473,-0.1843823910887312,0
483015,0.36784161135271226,-1.531708247501335,-0.18622873273823148,0
483019,0.36330968184939344,-1.5407721065079727,-0.17716487373159379,0
483023,0.36868085755703056,-1.5419470511940183,-0.1865644312199588,0
483027,0.36582742046234834,-1.5525215533684291,-0.18001831082627603,0
483031,0.3634775310902571,-1.5486610208285647,-0.18337529564354924,0
483035,0.3638132295719844,-1.5380865186541541,-0.181025406271458,0
483039,0.36582742046234834,-1.553528648813611,-0.18203250171663996,0
483043,0.36028839551384756,-1.5573891813534753,-0.18119325551232165,0
483047,0.3559243152513924,-1.5689707789730678,-0.17800411993591211,0
483050,0.3552529182879377,-1.5805523765926603,-0.17682917524986647,0
483054,0.35659571221484704,-1.5760204470893415,-0.1835431448844129,0
483058,0.36666666666666664,-1.5676279850461585,-0.18773937590600442,0
483062,0.3681773098344396,-1.5615854123750668,-0.18807507438773174,0
483066,0.3609597924773022,-1.553528648813611,-0.1785076676585031,0
483070,0.3614633401998932,-1.5572213321126116,-0.17179369802395666,0
483074,0.3617990386816205,-1.5515144579232472,-0.17766842145418477,0
483078,0.36028839551384756,-1.5572213321126116,-0.18874647135118638,0
483082,0.3609597924773022,-1.5543678950179294,-0.19126420996414129,0
483086,0.35340657663843744,-1.5657816433966583,-0.18152895399404897,0
483089,0.3547493705653467,-1.5854200045777065,-0.18639658197909514,0
483093,0.3549172198062104,-1.5840772106507972,-0.18706797894254978,0
483097,0.36330968184939344,-1.5632639047837034,-0.18790722514686808,0
483101,0.3651560234988937,-1.532715342946517,-0.18807507438773174,0
483105,0.36280613412680246,-1.5506752117189289,-0.181025406271458,0
483109,0.3621347371633478,-1.5508430609597925,-0.1801861600671397,0
483113,0.3621347371633478,-1.5491645685511557,-0.18119325551232165,0
483117,0.3592813000686656,-1.5515144579232472,-0.181025406271458,0
483121,0.3626382848859388,-1.5548714427405204,-0.18085755703059433,0
483125,0.3621347371633478,-1.5528572518501564,-0.1835431448844129,0
483129,0.36700236514839396,-1.5449683375295642,-0.18337529564354924,0
483132,0.3617990386816205,-1.5437933928435186,-0.17800411993591211,0
483136,0.36532387273975736,-1.5610818646524758,-0.17598992904554817,0
483140,0.3693522545204852,-1.5446326390478369,-0.17531853208209353,0
483144,0.3680094605935759,-1.5528572518501564,-0.17682917524986647,0
483148,0.3668345159075303,-1.5572213321126116,-0.18421454184786754,0
483152,0.3696879530022125,-1.5343938353551536,-0.17632562752727549,0
483156,0.3631418326085298,-1.5402685587853817,-0.17733272297245745,0
483160,0.36834515907530324,-1.5370794232089722,-0.1766613260090028,0
483164,0.37321278706034944,-1.5181124589913786,-0.18119325551232165,0
483168,0.3710307469291218,-1.5328831921873807,-0.1766613260090028,0
483172,0.3720378423743038,-1.531204699778744,-0.17095445181963836,0
483175,0.37321278706034944,-1.5189517051956969,-0.1766613260090028,0
483179,0.3688487067978942,-1.5313725490196077,-0.1749828336003662,0
483183,0.3685130083161669,-1.53422598611429,-0.1758220798046845,0
483187,0.36498817425803004,-1.5182803082322422,-0.17515068284122987,0
483191,0.3663309681849393,-1.5283512626840619,-0.1793469138628214,0
483195,0.3604562447547112,-1.5486610208285647,-0.17766842145418477,0
483199,0.35995269703212024,-1.5667887388418402,-0.17515068284122987,0
483203,0.35810635538262,-1.5620889600976577,-0.18337529564354924,0
483207,0.3601205462729839,-1.5758525978484779,-0.18001831082627603,0
483211,0.35860990310521096,-1.5694743266956588,-0.18136110475318531,0
483214,0.35777065690089266,-1.5677958342870222,-0.1758220798046845,0
483218,0.3597848477912566,-1.548996719310292,-0.17968261234454871,0
483222,0.35542076752880136,-1.5676279850461585,-0.18337529564354924,0
483226,0.35995269703212024,-1.5735027084763866,-0.1835431448844129,0
483230,0.36028839551384756,-1.5688029297322041,-0.18421454184786754,0
483234,0.3579385061417563,-1.5652780956740673,-0.17917906462195773,0
483238,0.3592813000686656,-1.5595712214847028,-0.18555733577477682,0
483242,0.36196688792248416,-1.5528572518501564,-0.17985046158541237,0
483246,0.3596169985503929,-1.5399328603036544,-0.18404669260700388,0
483250,0.36079194323643854,-1.556549935149157,-0.18236820019836728,0
483254,0.3579385061417563,-1.5585641260395209,-0.18622873273823148,0
483257,0.3572671091783017,-1.5693064774547951,-0.18303959716182192,0
483261,0.3671702143892576,-1.5538643472953384,-0.18572518501564048,0
483265,0.3747234302281224,-1.534729533836881,-0.18337529564354924,0
483269,0.365995269703212,-1.548493171587701,-0.1827038986800946,0
483273,0.36616311894407566,-1.5600747692072938,-0.18622873273823148,0
483277,0.36414892805371174,-1.5525215533684291,-0.18706797894254978,0
483281,0.3663309681849393,-1.5442969405661096,-0.17766842145418477,0
483285,0.365995269703212,-1.5528572518501564,-0.18169680323491263,0
483289,0.36868085755703056,-1.5394293125810634,-0.18236820019836728,0
483293,0.36448462653543906,-1.530701152056153,-0.17985046158541237,0
483297,0.3676737621118486,-1.525329976348516,-0.17447928587777523,0
483300,0.3639810788128481,-1.530701152056153,-0.18320744640268558,0
483304,0.3696879530022125,-1.5260013733119706,-0.18119325551232165,0
483308,0.3673380636301213,-1.5355687800411992,-0.17716487373159379,0
483312,0.365491721980621,-1.556046387426566,-0.17649347676813915,0
483316,0.365995269703212,-1.5590676737621119,-0.1766613260090028,0
483320,0.3639810788128481,-1.549668116273747,-0.17817196917677577,0
483324,0.3648203250171664,-1.5394293125810634,-0.17733272297245745,0
483328,0.3651560234988937,-1.5226443884946974,-0.18119325551232165,0
483332,0.3572671091783017,-1.555039291981384,-0.1766613260090028,0
483336,0.35860990310521096,-1.5607461661707485,-0.17783627069504843,0
483340,0.3584420538643473,-1.556549935149157,-0.16961165789272906,0
483343,0.3547493705653467,-1.5783703364614328,-0.17649347676813915,0
483347,0.3609597924773022,-1.5651102464332036,-0.17129015030136568,0
483351,0.3646524757763027,-1.543625543602655,-0.17968261234454871,0
483355,0.3629739833676661,-1.5434576943617913,-0.17179369802395666,0
483359,0.3572671091783017,-1.5641031509880217,-0.16977950713359272,0
483363,0.3601205462729839,-1.5726634622720683,-0.17951476310368505,0
483367,0.36247043564507514,-1.5523537041275655,-0.18136110475318531,0
483371,0.36532387273975736,-1.562424658579385,-0.1835431448844129,0
483375,0.36666666666666664,-1.5592355230029755,-0.17985046158541237,0
483379,0.3587777523460746,-1.5615854123750668,-0.17917906462195773,0
483382,0.3651560234988937,-1.532211795223926,-0.1775005722133211,0
483386,0.3631418326085298,-1.5369115739681085,-0.17884336614023041,0
483390,0.35609216449225606,-1.562928206301976,-0.16961165789272906,0
483394,0.3547493705653467,-1.582230869001297,-0.17917906462195773,0
483398,0.357099259937438,-1.565949492637522,-0.17481498435950255,0
483402,0.36498817425803004,-1.5364080262455175,-0.17783627069504843,0
483406,0.3621347371633478,-1.5419470511940183,-0.17699702449073013,0
483410,0.3626382848859388,-1.5563820859082933,-0.18253604943923094,0
483414,0.36112764171816586,-1.5511787594415198,-0.17112230106050202,0
483418,0.3646524757763027,-1.540604257267109,-0.17548638132295719,0
483422,0.3646524757763027,-1.5379186694132905,-0.17800411993591211,0
483425,0.36280613412680246,-1.5508430609597925,-0.17481498435950255,0
483429,0.36364538033112076,-1.5374151216906995,-0.1801861600671397,0
483433,0.36280613412680246,-1.5533607995727474,-0.18001831082627603,0
483437,0.35944914930952926,-1.55302510109102,-0.1758220798046845,0
483441,0.3668345159075303,-1.556046387426566,-0.18589303425650416,0
483445,0.365995269703212,-1.5607461661707485,-0.17867551689936675,0
483449,0.3634775310902571,-1.5511787594415198,-0.18152895399404897,0
483453,0.36616311894407566,-1.5553749904631113,-0.18169680323491263,0
483457,0.36448462653543906,-1.5380865186541541,-0.18085755703059433,0
483461,0.3668345159075303,-1.5466468299382008,-0.1843823910887312,0
483465,0.36414892805371174,-1.5434576943617913,-0.18052185854886701,0
483468,0.3676737621118486,-1.5293583581292438,-0.18337529564354924,0
483472,0.3651560234988937,-1.5197909514000152,-0.17766842145418477,0
483476,0.3671702143892576,-1.5303654535744258,-0.17817196917677577,0
483480,0.36448462653543906,-1.5278477149614709,-0.17565423056382085,0
483484,0.3698558022430762,-1.5236514839398794,-0.17951476310368505,0
483488,0.3681773098344396,-1.5384222171358815,-0.1677653162432288,0
483492,0.366498817425803,-1.5422827496757456,-0.1741435873960479,0
483496,0.37237354085603114,-1.5301976043335621,-0.17364003967345693,0
483500,0.3671702143892576,-1.5338902876325626,-0.17515068284122987,0
483504,0.36280613412680246,-1.5488288700694284,-0.17313649195086595,0
483507,0.3680094605935759,-1.5515144579232472,-0.17045090409704738,0
483511,0.3690165560387579,-1.5323796444647897,-0.17548638132295719,0
483515,0.3710307469291218,-1.535736629282063,-0.17833981841763943,0
483519,0.3646524757763027,-1.5379186694132905,-0.16894026092927442,0
483523,0.3609597924773022,-1.5419470511940183,-0.171625848783093,0
483527,0.3592813000686656,-1.5439612420843822,-0.1741435873960479,0
483531,0.3579385061417563,-1.5567177843900206,-0.17598992904554817,0
483535,0.35777065690089266,-1.5582284275577936,-0.17145799954222934,0
483539,0.35944914930952926,-1.5518501564049745,-0.17011520561532006,0
483543,0.35693141069657436,-1.5466468299382008,-0.1707866025787747,0
483547,0.3621347371633478,-1.5493324177920194,-0.17129015030136568,0
483550,0.36498817425803004,-1.5290226596475165,-0.18152895399404897,0
483554,0.3572671091783017,-1.5600747692072938,-0.17380788891432059,0
483558,0.35810635538262,-1.5641031509880217,-0.17045090409704738,0
483562,0.35340657663843744,-1.571320668345159,-0.17045090409704738,0
483566,0.35374227512016476,-1.5599069199664302,-0.17045090409704738,0
483570,0.35609216449225606,-1.5729991607537956,-0.17447928587777523,0
483574,0.3527351796749828,-1.5704814221408407,-0.17464713511863889,0
483578,0.36112764171816586,-1.5572213321126116,-0.17817196917677577,0
483582,0.3584420538643473,-1.5518501564049745,-0.1749828336003662,0
483586,0.3539101243610284,-1.5536964980544747,-0.1758220798046845,0
483590,0.35911345082780194,-1.5523537041275655,-0.17145799954222934,0
483593,0.36028839551384756,-1.5632639047837034,-0.17531853208209353,0
483597,0.3612954909590295,-1.5662851911192492,-0.17833981841763943,0
483601,0.35743495841916534,-1.5758525978484779,-0.18001831082627603,0
483605,0.3592813000686656,-1.5635996032654307,-0.1758220798046845,0
483609,0.3639810788128481,-1.5528572518501564,-0.17800411993591211,0
483613,0.35777065690089266,-1.556046387426566,-0.17431143663691157,0
483617,0.3612954909590295,-1.5604104676890211,-0.1749828336003662,0
483621,0.3626382848859388,-1.563431754024567,-0.18303959716182192,0
483625,0.365995269703212,-1.561921110856794,-0.18052185854886701,0
483629,0.36414892805371174,-1.5543678950179294,-0.18119325551232165,0
483633,0.36834515907530324,-1.5414435034714273,-0.18068970778973067,0
483636,0.366498817425803,-1.541611352712291,-0.17951476310368505,0
483640,0.36532387273975736,-1.5615854123750668,-0.1749828336003662,0
483644,0.3651560234988937,-1.5323796444647897,-0.1775005722133211,0
483648,0.36414892805371174,-1.5385900663767451,-0.17447928587777523,0
483652,0.3612954909590295,-1.5558785381857023,-0.17615777828641183,0
483656,0.36532387273975736,-1.565445944914931,-0.17817196917677577,0
483660,0.3638132295719844,-1.543625543602655,-0.17901121538109407,0
483664,0.3634775310902571,-1.5437933928435186,-0.17364003967345693,0
483668,0.3617990386816205,-1.5463111314564735,-0.1758220798046845,0
483672,0.35911345082780194,-1.542618448157473,-0.16977950713359272,0
483675,0.3631418326085298,-1.544129091325246,-0.17649347676813915,0
483679,0.3589456015869383,-1.5417792019531547,-0.16961165789272906,0
483683,0.3604562447547112,-1.5547035934996567,-0.17095445181963836,0
483687,0.3597848477912566,-1.5399328603036544,-0.17095445181963836,0
483691,0.36330968184939344,-1.5439612420843822,-0.1785076676585031,0
483695,0.3621347371633478,-1.5488288700694284,-0.17565423056382085,0
483699,0.35508506904707404,-1.5671244373235675,-0.17129015030136568,0
483703,0.36532387273975736,-1.5714885175860227,-0.17951476310368505,0
483707,0.36196688792248416,-1.5594033722438392,-0.17061875333791104,0
483711,0.3589456015869383,-1.5520180056458381,-0.16910811017013808,0
483715,0.3614633401998932,-1.5587319752803845,-0.17447928587777523,0
483718,0.3572671091783017,-1.5701457236591134,-0.17632562752727549,0
483722,0.3609597924773022,-1.5604104676890211,-0.16894026092927442,0
483726,0.3614633401998932,-1.5635996032654307,-0.1635690852216373,0
483730,0.3592813000686656,-1.55806057831693,-0.17028305485618372,0
483734,0.3623025864042115,-1.544129091325246,-0.17699702449073013,0
483738,0.3629739833676661,-1.543625543602655,-0.17481498435950255,0
483742,0.3643167772945754,-1.5359044785229266,-0.17280079346913862,0
483746,0.36448462653543906,-1.5318760967421987,-0.1749828336003662,0
483750,0.3656595712214847,-1.5486610208285647,-0.17145799954222934,0
483754,0.3587777523460746,-1.557557030594339,-0.17951476310368505,0
483758,0.3663309681849393,-1.5488288700694284,-0.17867551689936675,0
483761,0.36330968184939344,-1.5464789806973371,-0.17682917524986647,0
483765,0.3626382848859388,-1.556046387426566,-0.17632562752727549,0
483769,0.365995269703212,-1.55806057831693,-0.17515068284122987,0
483773,0.3629739833676661,-1.5493324177920194,-0.16826886396581978,0
483777,0.3639810788128481,-1.5461432822156098,-0.17313649195086595,0
483781,0.3601205462729839,-1.5666208896009766,-0.1749828336003662,0
483785,0.3643167772945754,-1.5446326390478369,-0.17045090409704738,0
483789,0.3629739833676661,-1.5417792019531547,-0.16877241168841076,0
483793,0.365995269703212,-1.5518501564049745,-0.17464713511863889,0
483797,0.3626382848859388,-1.5562142366674296,-0.1758220798046845,0
483800,0.36079194323643854,-1.5617532616159304,-0.17129015030136568,0
483804,0.3604562447547112,-1.5652780956740673,-0.16894026092927442,0
483808,0.3646524757763027,-1.5463111314564735,-0.16843671320668344,0
483812,0.365995269703212,-1.5568856336308843,-0.1758220798046845,0
483816,0.365995269703212,-1.5597390707255665,-0.17045090409704738,0
483820,0.36163118944075684,-1.5501716639963379,-0.17280079346913862,0
483824,0.36280613412680246,-1.556549935149157,-0.16977950713359272,0
483828,0.3564278629739834,-1.5607461661707485,-0.17548638132295719,0
483832,0.3631418326085298,-1.556046387426566,-0.16826886396581978,0
483836,0.3621347371633478,-1.5536964980544747,-0.17011520561532006,0
483840,0.36330968184939344,-1.5505073624780652,-0.17045090409704738,0
483843,0.36196688792248416,-1.5510109102006562,-0.17129015030136568,0
483847,0.35944914930952926,-1.5491645685511557,-0.16843671320668344,0
483851,0.3648203250171664,-1.5377508201724268,-0.1749828336003662,0
483855,0.36079194323643854,-1.554535744258793,-0.17179369802395666,0
483859,0.36448462653543906,-1.5387579156176088,-0.17364003967345693,0
483863,0.3656595712214847,-1.5500038147554742,-0.18136110475318531,0
483867,0.36498817425803004,-1.5290226596475165,-0.17380788891432059,0
483871,0.3676737621118486,-1.5283512626840619,-0.17800411993591211,0
483875,0.3648203250171664,-1.5280155642023345,-0.1694438086518654,0
483879,0.36448462653543906,-1.5251621271076523,-0.17649347676813915,0
483883,0.3676737621118486,-1.5229800869764247,-0.1775005722133211,0
483886,0.3626382848859388,-1.5419470511940183,-0.17951476310368505,0
483890,0.35827420462348364,-1.541611352712291,-0.17515068284122987,0
483894,0.3646524757763027,-1.5404364080262454,-0.17045090409704738,0
483898,0.3601205462729839,-1.5661173418783856,-0.17129015030136568,0
483902,0.36196688792248416,-1.5577248798352026,-0.17531853208209353,0
483906,0.3604562447547112,-1.5594033722438392,-0.16826886396581978,0
483910,0.3601205462729839,-1.573838406958114,-0.16810101472495612,0
483914,0.3587777523460746,-1.5689707789730678,-0.17011520561532006,0
483918,0.355588616769665,-1.565949492637522,-0.17145799954222934,0
483922,0.3587777523460746,-1.5642710002288853,-0.16843671320668344,0
483926,0.3592813000686656,-1.5543678950179294,-0.16407263294422827,0
483929,0.36330968184939344,-1.5516823071641108,-0.16927595941100174,0
483933,0.36196688792248416,-1.5501716639963379,-0.16625467307545586,0
483937,0.3656595712214847,-1.5525215533684291,-0.16642252231631952,0
483941,0.3646524757763027,-1.5380865186541541,-0.1766613260090028,0
483945,0.3621347371633478,-1.5453040360112915,-0.17028305485618372,0
483949,0.36112764171816586,-1.5516823071641108,-0.17112230106050202,0
483953,0.3631418326085298,-1.5451361867704279,-0.16977950713359272,0
483957,0.3604562447547112,-1.554032196536202,-0.17431143663691157,0
483961,0.3646524757763027,-1.540604257267109,-0.17280079346913862,0
483965,0.3597848477912566,-1.5338902876325626,-0.181025406271458,0
483968,0.366498817425803,-1.5384222171358815,-0.17515068284122987,0
483972,0.36532387273975736,-1.5582284275577936,-0.17464713511863889,0
483976,0.36414892805371174,-1.5543678950179294,-0.18203250171663996,0
483980,0.3623025864042115,-1.5409399557488364,-0.17800411993591211,0
483984,0.36532387273975736,-1.557053482871748,-0.18085755703059433,0
483988,0.3651560234988937,-1.531708247501335,-0.17481498435950255,0
483992,0.36364538033112076,-1.5280155642023345,-0.17716487373159379,0
483996,0.3604562447547112,-1.5461432822156098,-0.17129015030136568,0
484000,0.36247043564507514,-1.5360723277637902,-0.17968261234454871,0
484004,0.36028839551384756,-1.553528648813611,-0.17800411993591211,0
484008,0.36414892805371174,-1.5493324177920194,-0.1758220798046845,0
484011,0.3606240939955749,-1.557053482871748,-0.1652475776302739,0
484015,0.35743495841916534,-1.5696421759365224,-0.16558327611200122,0
484019,0.35374227512016476,-1.5599069199664302,-0.16843671320668344,0
484023,0.3567635614557107,-1.5651102464332036,-0.17380788891432059,0
484027,0.3621347371633478,-1.5590676737621119,-0.17800411993591211,0
484031,0.36498817425803004,-1.5323796444647897,-0.18068970778973067,0
484035,0.3656595712214847,-1.5448004882887005,-0.16961165789272906,0
484039,0.36163118944075684,-1.5437933928435186,-0.16843671320668344,0
484043,0.3623025864042115,-1.5328831921873807,-0.16977950713359272,0
484047,0.3601205462729839,-1.5602426184481575,-0.17531853208209353,0
484051,0.3631418326085298,-1.554032196536202,-0.1758220798046845,0
484054,0.35659571221484704,-1.5609140154116121,-0.1766613260090028,0
484058,0.3532387273975738,-1.5632639047837034,-0.17598992904554817,0
484062,0.35860990310521096,-1.5662851911192492,-0.1686045624475471,0
484066,0.35995269703212024,-1.5746776531624322,-0.16894026092927442,0
484070,0.3639810788128481,-1.5630960555428397,-0.17045090409704738,0
484074,0.3621347371633478,-1.5562142366674296,-0.17028305485618372,0
484078,0.3597848477912566,-1.5422827496757456,-0.16675822079804684,0
484082,0.357602807660029,-1.555542839703975,-0.1749828336003662,0
484086,0.3572671091783017,-1.5656137941557946,-0.17447928587777523,0
484090,0.35659571221484704,-1.5662851911192492,-0.16961165789272906,0
484093,0.3606240939955749,-1.5676279850461585,-0.1741435873960479,0
484097,0.3597848477912566,-1.544129091325246,-0.1758220798046845,0
484101,0.3680094605935759,-1.5508430609597925,-0.18152895399404897,0
484105,0.36750591287098494,-1.5463111314564735,-0.17649347676813915,0
484109,0.36784161135271226,-1.5335545891508353,-0.17129015030136568,0
484113,0.365491721980621,-1.5573891813534753,-0.17766842145418477,0
484117,0.36666666666666664,-1.5562142366674296,-0.17716487373159379,0
484121,0.3685130083161669,-1.5459754329747462,-0.17145799954222934,0
484125,0.36784161135271226,-1.5333867399099717,-0.16961165789272906,0
484129,0.36448462653543906,-1.5296940566109711,-0.17481498435950255,0
484133,0.3690165560387579,-1.5234836346990157,-0.16826886396581978,0
484136,0.3690165560387579,-1.5194552529182879,-0.17145799954222934,0
484140,0.36952010376134886,-1.5281834134431982,-0.16910811017013808,0
484144,0.36784161135271226,-1.523315785458152,-0.17431143663691157,0
484148,0.37086289768825814,-1.539093614099336,-0.17380788891432059,0
484152,0.36750591287098494,-1.5402685587853817,-0.17733272297245745,0
484156,0.37237354085603114,-1.5301976043335621,-0.17766842145418477,0
484160,0.36616311894407566,-1.5456397344930188,-0.17045090409704738,0
484164,0.365995269703212,-1.5531929503318838,-0.17699702449073013,0
484168,0.36498817425803004,-1.5291905088883802,-0.17145799954222934,0
484172,0.36750591287098494,-1.534729533836881,-0.17682917524986647,0
484176,0.36112764171816586,-1.5374151216906995,-0.1741435873960479,0
484179,0.3617990386816205,-1.5404364080262454,-0.1785076676585031,0
484183,0.3638132295719844,-1.531204699778744,-0.16894026092927442,0
484187,0.36666666666666664,-1.5464789806973371,-0.17615777828641183,0
484191,0.3601205462729839,-1.5651102464332036,-0.17833981841763943,0
484195,0.3621347371633478,-1.5563820859082933,-0.17985046158541237,0
484199,0.3651560234988937,-1.5325474937056534,-0.1741435873960479,0
484203,0.3639810788128481,-1.5439612420843822,-0.1758220798046845,0
484207,0.35995269703212024,-1.5676279850461585,-0.17682917524986647,0
484211,0.3601205462729839,-1.5770275425345235,-0.17917906462195773,0
484215,0.3643167772945754,-1.5528572518501564,-0.1749828336003662,0
484218,0.36498817425803004,-1.5295262073701075,-0.17800411993591211,0
484222,0.3587777523460746,-1.548996719310292,-0.17011520561532006,0
484226,0.35743495841916534,-1.56494239719234,-0.1775005722133211,0
484230,0.36079194323643854,-1.563431754024567,-0.17817196917677577,0
484234,0.36079194323643854,-1.5646066987106126,-0.17380788891432059,0
484238,0.357099259937438,-1.5562142366674296,-0.17515068284122987,0
484242,0.3614633401998932,-1.5615854123750668,-0.17548638132295719,0
484246,0.3626382848859388,-1.5677958342870222,-0.16977950713359272,0
484250,0.35810635538262,-1.5652780956740673,-0.17649347676813915,0
484254,0.3614633401998932,-1.5635996032654307,-0.17632562752727549,0
484258,0.365491721980621,-1.5666208896009766,-0.17481498435950255,0
484261,0.3631418326085298,-1.5508430609597925,-0.17531853208209353,0
484265,0.36700236514839396,-1.5432898451209276,-0.17632562752727549,0
484269,0.36666666666666664,-1.5500038147554742,-0.17179369802395666,0
484273,0.3663309681849393,-1.5446326390478369,-0.16642252231631952,0
484277,0.36330968184939344,-1.5442969405661096,-0.17800411993591211,0
484281,0.3656595712214847,-1.5523537041275655,-0.17028305485618372,0
484285,0.3668345159075303,-1.5531929503318838,-0.16793316548409246,0
484289,0.365995269703212,-1.5578927290760662,-0.16793316548409246,0
484293,0.3656595712214847,-1.557557030594339,-0.17313649195086595,0
484297,0.3629739833676661,-1.5498359655146106,-0.16675822079804684,0
484301,0.36532387273975736,-1.562928206301976,-0.17515068284122987,0
484304,0.3617990386816205,-1.5510109102006562,-0.18068970778973067,0
484308,0.365491721980621,-1.5656137941557946,-0.16793316548409246,0
484312,0.3634775310902571,-1.557053482871748,-0.17011520561532006,0
484316,0.36280613412680246,-1.5595712214847028,-0.1694438086518654,0
484320,0.36448462653543906,-1.543625543602655,-0.17313649195086595,0
484324,0.3601205462729839,-1.561417563134203,-0.1766613260090028,0
484328,0.36532387273975736,-1.5684672312504768,-0.16843671320668344,0
484332,0.3648203250171664,-1.5454718852521552,-0.16424048218509193,0
484336,0.37119859616998546,-1.5389257648584724,-0.17129015030136568,0
484340,0.3738841840238041,-1.5249942778667887,-0.17380788891432059,0
484344,0.3737163347829404,-1.5186160067139696,-0.18152895399404897,0
484347,0.3690165560387579,-1.5213015945677881,-0.17733272297245745,0
484351,0.366498817425803,-1.5271763179980162,-0.17447928587777523,0
484355,0.3706950484473945,-1.544129091325246,-0.17447928587777523,0
484359,0.3673380636301213,-1.5419470511940183,-0.16507972838941024,0
484363,0.36414892805371174,-1.5432898451209276,-0.1749828336003662,0
484367,0.357099259937438,-1.5503395132372015,-0.16894026092927442,0
484371,0.36280613412680246,-1.5585641260395209,-0.16994735637445638,0
484375,0.35911345082780194,-1.5451361867704279,-0.17045090409704738,0
484379,0.36532387273975736,-1.5632639047837034,-0.16910811017013808,0
484383,0.3612954909590295,-1.561417563134203,-0.1686045624475471,0
484386,0.3663309681849393,-1.5508430609597925,-0.1660868238345922,0
484390,0.3651560234988937,-1.526840619516289,-0.16675822079804684,0
484394,0.3609597924773022,-1.5328831921873807,-0.1686045624475471,0
484398,0.366498817425803,-1.534729533836881,-0.17347219043259327,0
484402,0.3648203250171664,-1.5318760967421987,-0.171625848783093,0
484406,0.36247043564507514,-1.5296940566109711,-0.17632562752727549,0
484410,0.3638132295719844,-1.5281834134431982,-0.17431143663691157,0
484414,0.36700236514839396,-1.532715342946517,-0.17431143663691157,0
484418,0.3651560234988937,-1.5216372930495154,-0.17968261234454871,0
484422,0.3676737621118486,-1.5236514839398794,-0.17833981841763943,0
484426,0.3663309681849393,-1.5323796444647897,-0.18068970778973067,0
484429,0.3646524757763027,-1.5276798657206072,-0.16642252231631952,0
484433,0.3643167772945754,-1.5254978255893796,-0.17632562752727549,0
484437,0.36952010376134886,-1.530701152056153,-0.1686045624475471,0
484441,0.3676737621118486,-1.525833524071107,-0.17011520561532006,0
484445,0.3680094605935759,-1.5448004882887005,-0.16977950713359272,0
484449,0.3713664454108491,-1.5424505989166093,-0.16961165789272906,0
484453,0.36868085755703056,-1.539093614099336,-0.171625848783093,0
484457,0.3693522545204852,-1.5389257648584724,-0.16843671320668344,0
484461,0.3696879530022125,-1.530701152056153,-0.1694438086518654,0
484465,0.37002365148393984,-1.525329976348516,-0.1758220798046845,0
484469,0.36666666666666664,-1.5424505989166093,-0.17145799954222934,0
484472,0.36532387273975736,-1.5585641260395209,-0.1707866025787747,0
484476,0.36582742046234834,-1.5573891813534753,-0.17397573815518425,0
484480,0.3631418326085298,-1.5495002670328832,-0.17028305485618372,0
484484,0.3643167772945754,-1.5382543678950178,-0.17045090409704738,0
484488,0.36616311894407566,-1.5493324177920194,-0.1749828336003662,0
484492,0.3623025864042115,-1.5380865186541541,-0.17028305485618372,0
484496,0.36247043564507514,-1.5354009308003356,-0.17464713511863889,0
484500,0.3623025864042115,-1.5300297550926985,-0.1694438086518654,0
484504,0.3623025864042115,-1.5303654535744258,-0.17951476310368505,0
484508,0.3651560234988937,-1.5189517051956969,-0.17112230106050202,0
484511,0.3621347371633478,-1.5340581368734263,-0.16759746700236514,0
484515,0.3639810788128481,-1.5449683375295642,-0.16927595941100174,0
484519,0.3626382848859388,-1.555039291981384,-0.17632562752727549,0
484523,0.3638132295719844,-1.5360723277637902,-0.16977950713359272,0
484527,0.35911345082780194,-1.5432898451209276,-0.16927595941100174,0
484531,0.36028839551384756,-1.5558785381857023,-0.16642252231631952,0
484535,0.3604562447547112,-1.557053482871748,-0.17364003967345693,0
484539,0.3612954909590295,-1.5642710002288853,-0.16742961776150148,0
484543,0.3617990386816205,-1.553528648813611,-0.17045090409704738,0
484547,0.35777065690089266,-1.5587319752803845,-0.17464713511863889,0
484551,0.3579385061417563,-1.5609140154116121,-0.16994735637445638,0
484554,0.3626382848859388,-1.5627603570611124,-0.16977950713359272,0
484558,0.3623025864042115,-1.5429541466392003,-0.17565423056382085,0
484562,0.3609597924773022,-1.5424505989166093,-0.17783627069504843,0
484566,0.3621347371633478,-1.5495002670328832,-0.1677653162432288,0
484570,0.3626382848859388,-1.557053482871748,-0.171625848783093,0
484574,0.3648203250171664,-1.5419470511940183,-0.16994735637445638,0
484578,0.3623025864042115,-1.5340581368734263,-0.17129015030136568,0
484582,0.3606240939955749,-1.555542839703975,-0.17447928587777523,0
484586,0.36448462653543906,-1.5382543678950178,-0.1741435873960479,0
484590,0.36196688792248416,-1.543121995880064,-0.17447928587777523,0
484594,0.3663309681849393,-1.5397650110627907,-0.1741435873960479,0
484597,0.3639810788128481,-1.543121995880064,-0.17917906462195773,0
484601,0.36112764171816586,-1.5458075837338825,-0.17061875333791104,0
484605,0.365491721980621,-1.562928206301976,-0.16961165789272906,0
484609,0.36163118944075684,-1.5578927290760662,-0.17531853208209353,0
484613,0.3592813000686656,-1.5515144579232472,-0.17447928587777523,0
484617,0.36532387273975736,-1.5641031509880217,-0.16726176852063782,0
484621,0.36532387273975736,-1.5688029297322041,-0.16810101472495612,0
484625,0.366498817425803,-1.5508430609597925,-0.17481498435950255,0
484629,0.3651560234988937,-1.5260013733119706,-0.17531853208209353,0
484633,0.3680094605935759,-1.5429541466392003,-0.16491187914854658,0
484637,0.366498817425803,-1.5404364080262454,-0.16994735637445638,0
484640,0.36247043564507514,-1.5365758754863812,-0.16709391927977416,0
484644,0.3626382848859388,-1.5466468299382008,-0.16910811017013808,0
484648,0.36414892805371174,-1.5449683375295642,-0.17515068284122987,0
484652,0.3612954909590295,-1.5573891813534753,-0.16994735637445638,0
484656,0.36028839551384756,-1.5572213321126116,-0.1749828336003662,0
484660,0.3631418326085298,-1.5516823071641108,-0.16843671320668344,0
484664,0.3631418326085298,-1.5439612420843822,-0.1660868238345922,0
484668,0.3629739833676661,-1.5414435034714273,-0.16642252231631952,0
484672,0.36666666666666664,-1.5508430609597925,-0.16843671320668344,0
484676,0.3651560234988937,-1.5320439459830624,-0.16625467307545586,0
484679,0.3656595712214847,-1.5444647898069732,-0.17313649195086595,0
484683,0.36448462653543906,-1.5354009308003356,-0.16810101472495612,0
484687,0.3685130083161669,-1.5348973830777446,-0.17179369802395666,0
484691,0.3668345159075303,-1.5456397344930188,-0.17061875333791104,0
484695,0.3730449378194858,-1.525329976348516,-0.1758220798046845,0
484699,0.3713664454108491,-1.53422598611429,-0.17380788891432059,0
484703,0.37237354085603114,-1.5280155642023345,-0.17112230106050202,0
484707,0.365491721980621,-1.5508430609597925,-0.17028305485618372,0
484711,0.3629739833676661,-1.5454718852521552,-0.16810101472495612,0
484715,0.3626382848859388,-1.5531929503318838,-0.16491187914854658,0
484719,0.3646524757763027,-1.541611352712291,-0.1758220798046845,0
484722,0.3688487067978942,-1.5394293125810634,-0.17481498435950255,0
484726,0.36834515907530324,-1.5402685587853817,-0.17179369802395666,0
484730,0.3623025864042115,-1.534729533836881,-0.1686045624475471,0
484734,0.36364538033112076,-1.532211795223926,-0.16961165789272906,0
484738,0.3639810788128481,-1.5360723277637902,-0.16894026092927442,0
484742,0.3706950484473945,-1.5466468299382008,-0.16759746700236514,0
484746,0.36784161135271226,-1.534729533836881,-0.17380788891432059,0
484750,0.3673380636301213,-1.5394293125810634,-0.17364003967345693,0
484754,0.36330968184939344,-1.5448004882887005,-0.17649347676813915,0
484758,0.3606240939955749,-1.555542839703975,-0.17481498435950255,0
484762,0.3656595712214847,-1.5562142366674296,-0.17548638132295719,0
484765,0.3629739833676661,-1.5453040360112915,-0.16927595941100174,0
484769,0.36666666666666664,-1.5567177843900206,-0.16507972838941024,0
484773,0.3639810788128481,-1.5510109102006562,-0.1694438086518654,0
484777,0.35911345082780194,-1.5458075837338825,-0.17380788891432059,0
484781,0.3609597924773022,-1.5463111314564735,-0.16994735637445638,0
484785,0.36247043564507514,-1.5374151216906995,-0.16742961776150148,0
484789,0.3626382848859388,-1.549668116273747,-0.1758220798046845,0
484793,0.3656595712214847,-1.5491645685511557,-0.17380788891432059,0
484797,0.36918440527962154,-1.5313725490196077,-0.17615777828641183,0
484801,0.3631418326085298,-1.5362401770046539,-0.17011520561532006,0
484804,0.3623025864042115,-1.531204699778744,-0.1707866025787747,0
484808,0.3587777523460746,-1.5528572518501564,-0.17615777828641183,0
484812,0.3612954909590295,-1.5607461661707485,-0.18807507438773174,0
484816,0.3623025864042115,-1.548493171587701,-0.16810101472495612,0
484820,0.3609597924773022,-1.5491645685511557,-0.1733043411917296,0
484824,0.36247043564507514,-1.535736629282063,-0.17766842145418477,0
484828,0.35743495841916534,-1.5590676737621119,-0.17598992904554817,0
484832,0.3596169985503929,-1.5402685587853817,-0.17045090409704738,0
484836,0.3584420538643473,-1.5427862973983366,-0.16759746700236514,0
484840,0.3597848477912566,-1.5333867399099717,-0.17364003967345693,0
484844,0.3609597924773022,-1.5370794232089722,-0.17129015030136568,0
484847,0.3638132295719844,-1.533722438391699,-0.16910811017013808,0
484851,0.36196688792248416,-1.5424505989166093,-0.16742961776150148,0
484855,0.3646524757763027,-1.5369115739681085,-0.17112230106050202,0
484859,0.3639810788128481,-1.544129091325246,-0.17565423056382085,0
484863,0.3634775310902571,-1.5449683375295642,-0.17112230106050202,0
484867,0.3634775310902571,-1.5481574731059737,-0.17112230106050202,0
484871,0.3596169985503929,-1.5384222171358815,-0.17095445181963836,0
484875,0.3609597924773022,-1.5422827496757456,-0.16826886396581978,0
484879,0.36079194323643854,-1.5531929503318838,-0.17112230106050202,0
484883,0.3612954909590295,-1.5588998245212482,-0.16843671320668344,0
484887,0.3638132295719844,-1.5387579156176088,-0.17145799954222934,0
484890,0.36247043564507514,-1.5348973830777446,-0.16709391927977416,0
484894,0.3623025864042115,-1.532211795223926,-0.16709391927977416,0
484898,0.36163118944075684,-1.5392614633401998,-0.171625848783093,0
484902,0.36330968184939344,-1.543121995880064,-0.17649347676813915,0
484906,0.3643167772945754,-1.5315403982604714,-0.17179369802395666,0
484910,0.36498817425803004,-1.5189517051956969,-0.17028305485618372,0
484914,0.35995269703212024,-1.5528572518501564,-0.171625848783093,0
484918,0.36364538033112076,-1.540100709544518,-0.16927595941100174,0
484922,0.3643167772945754,-1.5348973830777446,-0.17011520561532006,0
484926,0.36666666666666664,-1.5488288700694284,-0.1741435873960479,0
484930,0.3614633401998932,-1.5547035934996567,-0.17548638132295719,0
484933,0.36582742046234834,-1.557557030594339,-0.16558327611200122,0
484937,0.36498817425803004,-1.5320439459830624,-0.1766613260090028,0
484941,0.36582742046234834,-1.5464789806973371,-0.17833981841763943,0
484945,0.3648203250171664,-1.5385900663767451,-0.17313649195086595,0
484949,0.3609597924773022,-1.542114900434882,-0.17632562752727549,0
484953,0.36448462653543906,-1.5333867399099717,-0.17515068284122987,0
484957,0.36834515907530324,-1.5345616845960173,-0.17901121538109407,0
484961,0.36616311894407566,-1.5501716639963379,-0.18421454184786754,0
484965,0.3631418326085298,-1.5439612420843822,-0.1741435873960479,0
484969,0.3629739833676661,-1.542114900434882,-0.17615777828641183,0
484972,0.3639810788128481,-1.5432898451209276,-0.17917906462195773,0
484976,0.3681773098344396,-1.5500038147554742,-0.17397573815518425,0
484980,0.36414892805371174,-1.5498359655146106,-0.18169680323491263,0
484984,0.3685130083161669,-1.5419470511940183,-0.17817196917677577,0
484988,0.36112764171816586,-1.5429541466392003,-0.17515068284122987,0
484992,0.3597848477912566,-1.5340581368734263,-0.16239414053559167,0
484996,0.35609216449225606,-1.5588998245212482,-0.16625467307545586,0
485000,0.3564278629739834,-1.5572213321126116,-0.16843671320668344,0
485004,0.3626382848859388,-1.561417563134203,-0.18303959716182192,0
485008,0.36532387273975736,-1.5679636835278858,-0.18236820019836728,0
485012,0.37186999313344016,-1.5399328603036544,-0.17045090409704738,0
485015,0.3681773098344396,-1.5454718852521552,-0.17061875333791104,0
485019,0.3604562447547112,-1.5528572518501564,-0.1613870450904097,0
485023,0.36163118944075684,-1.5464789806973371,-0.16709391927977416,0
485027,0.35995269703212024,-1.5647745479514763,-0.1694438086518654,0
485031,0.3532387273975738,-1.5686350804913405,-0.17682917524986647,0
485035,0.3589456015869383,-1.5592355230029755,-0.17112230106050202,0
485039,0.3562600137331197,-1.5642710002288853,-0.16726176852063782,0
485043,0.3579385061417563,-1.563935301747158,-0.17565423056382085,0
485047,0.36532387273975736,-1.5679636835278858,-0.17061875333791104,0
485051,0.37186999313344016,-1.5370794232089722,-0.16810101472495612,0
485055,0.36330968184939344,-1.5407721065079727,-0.16810101472495612,0
485058,0.35659571221484704,-1.5592355230029755,-0.17632562752727549,0
485062,0.35508506904707404,-1.5682993820096132,-0.17649347676813915,0
485066,0.3592813000686656,-1.555542839703975,-0.17649347676813915,0
485070,0.3606240939955749,-1.5612497138933394,-0.17380788891432059,0
485074,0.36247043564507514,-1.541611352712291,-0.17632562752727549,0
485078,0.36784161135271226,-1.5315403982604714,-0.17515068284122987,0
485082,0.36616311894407566,-1.5459754329747462,-0.1766613260090028,0
485086,0.36784161135271226,-1.532715342946517,-0.17011520561532006,0
485090,0.366498817425803,-1.5367437247272449,-0.17380788891432059,0
485094,0.36784161135271226,-1.5275120164797436,-0.17129015030136568,0
485098,0.365995269703212,-1.543625543602655,-0.17280079346913862,0
485101,0.36414892805371174,-1.5451361867704279,-0.17045090409704738,0
485105,0.3720378423743038,-1.5434576943617913,-0.16575112535286488,0
485109,0.3725413900968948,-1.531708247501335,-0.1686045624475471,0
485113,0.3663309681849393,-1.5300297550926985,-0.16843671320668344,0
485117,0.3733806363012131,-1.5335545891508353,-0.17531853208209353,0
485121,0.3668345159075303,-1.5451361867704279,-0.16927595941100174,0
485125,0.3690165560387579,-1.5303654535744258,-0.17716487373159379,0
485129,0.3710307469291218,-1.5359044785229266,-0.17380788891432059,0
485133,0.37119859616998546,-1.5377508201724268,-0.17145799954222934,0
485137,0.37270923933775846,-1.530701152056153,-0.16675822079804684,0
485140,0.3693522545204852,-1.5343938353551536,-0.17682917524986647,0
485144,0.36666666666666664,-1.544129091325246,-0.17716487373159379,0
485148,0.36364538033112076,-1.5360723277637902,-0.17565423056382085,0
485152,0.3680094605935759,-1.5454718852521552,-0.1733043411917296,0
485156,0.3685130083161669,-1.5414435034714273,-0.17447928587777523,0
485160,0.37086289768825814,-1.55302510109102,-0.17632562752727549,0
485164,0.36247043564507514,-1.5385900663767451,-0.17615777828641183,0
485168,0.36247043564507514,-1.5354009308003356,-0.17766842145418477,0
485172,0.36414892805371174,-1.5389257648584724,-0.17313649195086595,0
485176,0.3676737621118486,-1.5295262073701075,-0.16961165789272906,0
485180,0.36918440527962154,-1.523315785458152,-0.1775005722133211,0
485183,0.36582742046234834,-1.5394293125810634,-0.17548638132295719,0
485187,0.36750591287098494,-1.539093614099336,-0.17565423056382085,0
485191,0.36280613412680246,-1.5454718852521552,-0.1749828336003662,0
485195,0.36247043564507514,-1.5397650110627907,-0.1758220798046845,0
485199,0.36330968184939344,-1.5463111314564735,-0.1741435873960479,0
485203,0.3629739833676661,-1.5451361867704279,-0.17649347676813915,0
485207,0.3623025864042115,-1.5355687800411992,-0.17531853208209353,0
485211,0.36414892805371174,-1.5411078049897,-0.1669260700389105,0
485215,0.3634775310902571,-1.5456397344930188,-0.17515068284122987,0
485219,0.3587777523460746,-1.5533607995727474,-0.16894026092927442,0
485223,0.3648203250171664,-1.5417792019531547,-0.1749828336003662,0
485226,0.3617990386816205,-1.543121995880064,-0.16977950713359272,0
485230,0.3651560234988937,-1.5300297550926985,-0.17783627069504843,0
485234,0.36918440527962154,-1.5214694438086518,-0.1707866025787747,0
485238,0.36247043564507514,-1.526337071793698,-0.16961165789272906,0
485242,0.35995269703212024,-1.5597390707255665,-0.17968261234454871,0
485246,0.36532387273975736,-1.5682993820096132,-0.17481498435950255,0
485250,0.3634775310902571,-1.5558785381857023,-0.17884336614023041,0
485254,0.3663309681849393,-1.5513466086823835,-0.17515068284122987,0
485258,0.36582742046234834,-1.5543678950179294,-0.17061875333791104,0
485262,0.3638132295719844,-1.5364080262455175,-0.17347219043259327,0
485265,0.36448462653543906,-1.532211795223926,-0.16910811017013808,0
485269,0.36364538033112076,-1.5301976043335621,-0.17179369802395666,0
485273,0.3631418326085298,-1.5370794232089722,-0.16994735637445638,0
485277,0.3680094605935759,-1.5461432822156098,-0.1749828336003662,0
485281,0.36448462653543906,-1.5340581368734263,-0.17129015030136568,0
485285,0.3612954909590295,-1.5495002670328832,-0.17481498435950255,0
485289,0.3648203250171664,-1.5387579156176088,-0.1741435873960479,0
485293,0.3629739833676661,-1.540604257267109,-0.1749828336003662,0
485297,0.3606240939955749,-1.554535744258793,-0.17095445181963836,0
485301,0.3621347371633478,-1.5493324177920194,-0.17481498435950255,0
485305,0.365995269703212,-1.554032196536202,-0.16793316548409246,0
485308,0.3673380636301213,-1.5466468299382008,-0.17045090409704738,0
485312,0.3656595712214847,-1.5508430609597925,-0.16977950713359272,0
485316,0.3737163347829404,-1.5333867399099717,-0.17917906462195773,0
485320,0.3738841840238041,-1.526840619516289,-0.18068970778973067,0
485324,0.3671702143892576,-1.5325474937056534,-0.17917906462195773,0
485328,0.3698558022430762,-1.5270084687571526,-0.17951476310368505,0
485332,0.3651560234988937,-1.5186160067139696,-0.17985046158541237,0
485336,0.365491721980621,-1.5501716639963379,-0.17515068284122987,0
485340,0.3606240939955749,-1.5602426184481575,-0.17129015030136568,0
485344,0.3572671091783017,-1.5706492713817044,-0.17615777828641183,0
485348,0.3614633401998932,-1.5716563668268864,-0.17179369802395666,0
485351,0.35777065690089266,-1.5679636835278858,-0.16373693446250095,0
485355,0.36247043564507514,-1.5505073624780652,-0.17447928587777523,0
485359,0.36532387273975736,-1.563935301747158,-0.17095445181963836,0
485363,0.36666666666666664,-1.5622568093385214,-0.17028305485618372,0
485367,0.3656595712214847,-1.5594033722438392,-0.16994735637445638,0
485371,0.3643167772945754,-1.5424505989166093,-0.17364003967345693,0
485375,0.36280613412680246,-1.5526894026092928,-0.17800411993591211,0
485379,0.3639810788128481,-1.5501716639963379,-0.1677653162432288,0
485383,0.3643167772945754,-1.5330510414282443,-0.17112230106050202,0
485387,0.365995269703212,-1.5461432822156098,-0.17766842145418477,0
485391,0.365491721980621,-1.5622568093385214,-0.17313649195086595,0
485394,0.36498817425803004,-1.5325474937056534,-0.17615777828641183,0
485398,0.3663309681849393,-1.535736629282063,-0.17515068284122987,0
485402,0.37035934996566716,-1.5204623483634698,-0.18035400930800335,0
485406,0.3745555809872587,-1.5107270923933775,-0.16977950713359272,0
485410,0.36952010376134886,-1.5275120164797436,-0.17112230106050202,0
485414,0.3722056916151675,-1.533722438391699,-0.16961165789272906,0
485418,0.36918440527962154,-1.5254978255893796,-0.17045090409704738,0
485422,0.36750591287098494,-1.5328831921873807,-0.16759746700236514,0
485426,0.3696879530022125,-1.5213015945677881,-0.16843671320668344,0
485430,0.3688487067978942,-1.526337071793698,-0.16826886396581978,0
485433,0.366498817425803,-1.5305333028152894,-0.16843671320668344,0
485437,0.36918440527962154,-1.522812237735561,-0.16826886396581978,0
485441,0.3676737621118486,-1.524322880903334,-0.16843671320668344,0
485445,0.36952010376134886,-1.531708247501335,-0.17313649195086595,0
485449,0.36700236514839396,-1.5340581368734263,-0.17800411993591211,0
485453,0.3648203250171664,-1.5328831921873807,-0.16575112535286488,0
485457,0.3626382848859388,-1.5520180056458381,-0.17179369802395666,0
485461,0.36700236514839396,-1.5427862973983366,-0.16759746700236514,0
485465,0.3612954909590295,-1.555542839703975,-0.16977950713359272,0
485469,0.3646524757763027,-1.5397650110627907,-0.16994735637445638,0
485473,0.36163118944075684,-1.5404364080262454,-0.17095445181963836,0
485476,0.35777065690089266,-1.5500038147554742,-0.17011520561532006,0
485480,0.3629739833676661,-1.543625543602655,-0.17985046158541237,0
485484,0.36196688792248416,-1.5437933928435186,-0.17985046158541237,0
485488,0.3601205462729839,-1.565445944914931,-0.17045090409704738,0
485492,0.36112764171816586,-1.555542839703975,-0.17800411993591211,0
485496,0.3589456015869383,-1.548493171587701,-0.17716487373159379,0
485500,0.36532387273975736,-1.5609140154116121,-0.17699702449073013,0
485504,0.3621347371633478,-1.556046387426566,-0.17548638132295719,0
485508,0.35944914930952926,-1.5533607995727474,-0.17061875333791104,0
485512,0.35995269703212024,-1.5691386282139315,-0.17011520561532006,0
485516,0.3612954909590295,-1.5662851911192492,-0.16994735637445638,0
485519,0.36112764171816586,-1.5548714427405204,-0.17531853208209353,0
485523,0.36448462653543906,-1.5370794232089722,-0.16977950713359272,0
485527,0.3614633401998932,-1.5526894026092928,-0.17347219043259327,0
485531,0.3597848477912566,-1.5385900663767451,-0.17901121538109407,0
485535,0.3626382848859388,-1.5525215533684291,-0.171625848783093,0
485539,0.3617990386816205,-1.5506752117189289,-0.16927595941100174,0
485543,0.3592813000686656,-1.5511787594415198,-0.1741435873960479,0
485547,0.36028839551384756,-1.5557106889448387,-0.17531853208209353,0
485551,0.35827420462348364,-1.5506752117189289,-0.16927595941100174,0
485555,0.3639810788128481,-1.5456397344930188,-0.17045090409704738,0
485558,0.3634775310902571,-1.5493324177920194,-0.16910811017013808,0
485562,0.3629739833676661,-1.548493171587701,-0.17112230106050202,0
485566,0.3614633401998932,-1.556046387426566,-0.17011520561532006,0
485570,0.35827420462348364,-1.5463111314564735,-0.17145799954222934,0
485574,0.3621347371633478,-1.5424505989166093,-0.17179369802395666,0
485578,0.3651560234988937,-1.5278477149614709,-0.17464713511863889,0
485582,0.3617990386816205,-1.5355687800411992,-0.1775005722133211,0
485586,0.3629739833676661,-1.5409399557488364,-0.17867551689936675,0
485590,0.36498817425803004,-1.526840619516289,-0.1669260700389105,0
485594,0.3643167772945754,-1.5251621271076523,-0.17766842145418477,0
485598,0.36868085755703056,-1.532715342946517,-0.16977950713359272,0
485601,0.36414892805371174,-1.5370794232089722,-0.17649347676813915,0
485605,0.36498817425803004,-1.5216372930495154,-0.17783627069504843,0
485609,0.36834515907530324,-1.52734416723888,-0.17833981841763943,0
485613,0.3604562447547112,-1.543121995880064,-0.17447928587777523,0
485617,0.36582742046234834,-1.553528648813611,-0.1793469138628214,0
485621,0.36163118944075684,-1.5488288700694284,-0.17045090409704738,0
485625,0.3638132295719844,-1.5359044785229266,-0.1694438086518654,0
485629,0.36247043564507514,-1.532715342946517,-0.16910811017013808,0
485633,0.3643167772945754,-1.5315403982604714,-0.16591897459372854,0
485637,0.3612954909590295,-1.5510109102006562,-0.17179369802395666,0
485641,0.3592813000686656,-1.548493171587701,-0.16961165789272906,0
485644,0.3597848477912566,-1.5394293125810634,-0.16759746700236514,0
485648,0.3609597924773022,-1.5417792019531547,-0.17129015030136568,0
485652,0.36498817425803004,-1.5266727702754253,-0.18136110475318531,0
485656,0.3639810788128481,-1.5369115739681085,-0.1758220798046845,0
485660,0.3601205462729839,-1.5597390707255665,-0.16910811017013808,0
485664,0.3589456015869383,-1.5518501564049745,-0.1694438086518654,0
485668,0.3623025864042115,-1.5350652323186083,-0.17145799954222934,0
485672,0.3656595712214847,-1.544129091325246,-0.17447928587777523,0
485676,0.3646524757763027,-1.5370794232089722,-0.1707866025787747,0
485680,0.3646524757763027,-1.5333867399099717,-0.17817196917677577,0
485684,0.3646524757763027,-1.5286869611657892,-0.17615777828641183,0
485687,0.365995269703212,-1.5463111314564735,-0.17431143663691157,0
485691,0.3680094605935759,-1.5525215533684291,-0.17766842145418477,0
485695,0.3656595712214847,-1.5543678950179294,-0.17699702449073013,0
485699,0.36280613412680246,-1.5587319752803845,-0.17364003967345693,0
485703,0.3668345159075303,-1.5610818646524758,-0.17061875333791104,0
485707,0.3623025864042115,-1.5444647898069732,-0.17716487373159379,0
485711,0.3671702143892576,-1.540100709544518,-0.17112230106050202,0
485715,0.3690165560387579,-1.5291905088883802,-0.17699702449073013,0
485719,0.3676737621118486,-1.526337071793698,-0.1766613260090028,0
485723,0.3651560234988937,-1.5172732127870603,-0.16977950713359272,0
485726,0.36918440527962154,-1.517441062027924,-0.17598992904554817,0
485730,0.366498817425803,-1.5219729915312428,-0.17867551689936675,0
485734,0.3629739833676661,-1.5360723277637902,-0.17800411993591211,0
485738,0.3609597924773022,-1.5404364080262454,-0.17649347676813915,0
485742,0.36112764171816586,-1.540604257267109,-0.1749828336003662,0
485746,0.3639810788128481,-1.543121995880064,-0.17901121538109407,0
485750,0.3597848477912566,-1.5374151216906995,-0.17817196917677577,0
485754,0.3609597924773022,-1.5414435034714273,-0.1686045624475471,0
485758,0.35575646601052874,-1.5533607995727474,-0.17515068284122987,0
485762,0.3673380636301213,-1.5508430609597925,-0.17179369802395666,0
485766,0.3634775310902571,-1.5466468299382008,-0.17901121538109407,0
485769,0.35777065690089266,-1.555542839703975,-0.17800411993591211,0
485773,0.36112764171816586,-1.5510109102006562,-0.17783627069504843,0
485777,0.3604562447547112,-1.556046387426566,-0.17364003967345693,0
485781,0.3597848477912566,-1.539597161821927,-0.17313649195086595,0
485785,0.36247043564507514,-1.5348973830777446,-0.18220035095750362,0
485789,0.3668345159075303,-1.5449683375295642,-0.17129015030136568,0
485793,0.3597848477912566,-1.5384222171358815,-0.1758220798046845,0
485797,0.3612954909590295,-1.5538643472953384,-0.18052185854886701,0
485801,0.3646524757763027,-1.540100709544518,-0.17833981841763943,0
485805,0.36448462653543906,-1.5404364080262454,-0.17917906462195773,0
485809,0.36280613412680246,-1.557557030594339,-0.18001831082627603,0
485812,0.3629739833676661,-1.5434576943617913,-0.17968261234454871,0
485816,0.3656595712214847,-1.5495002670328832,-0.1785076676585031,0
485820,0.36498817425803004,-1.5285191119249255,-0.18001831082627603,0
485824,0.36196688792248416,-1.540604257267109,-0.17095445181963836,0
485828,0.35659571221484704,-1.557053482871748,-0.17766842145418477,0
485832,0.35944914930952926,-1.5488288700694284,-0.1785076676585031,0
485836,0.3614633401998932,-1.55806057831693,-0.18052185854886701,0
485840,0.3623025864042115,-1.5449683375295642,-0.17867551689936675,0
485844,0.35743495841916534,-1.564438849469749,-0.17380788891432059,0
485848,0.36079194323643854,-1.5661173418783856,-0.17598992904554817,0
485851,0.35810635538262,-1.5672922865644312,-0.171625848783093,0
485855,0.35659571221484704,-1.5684672312504768,-0.17699702449073013,0
485859,0.35944914930952926,-1.5585641260395209,-0.17598992904554817,0
485863,0.35827420462348364,-1.5542000457770657,-0.17531853208209353,0
485867,0.3596169985503929,-1.5399328603036544,-0.1818646524757763,0
485871,0.3584420538643473,-1.5414435034714273,-0.1852216372930495,0
485875,0.3601205462729839,-1.5657816433966583,-0.17649347676813915,0
485879,0.35693141069657436,-1.5582284275577936,-0.17951476310368505,0
485883,0.3634775310902571,-1.5543678950179294,-0.1852216372930495,0
485887,0.3617990386816205,-1.5521858548867018,-0.1785076676585031,0
485891,0.3634775310902571,-1.5493324177920194,-0.18404669260700388,0
485894,0.357602807660029,-1.556549935149157,-0.18455024032959486,0
485898,0.35743495841916534,-1.5689707789730678,-0.17985046158541237,0
485902,0.36498817425803004,-1.5382543678950178,-0.18253604943923094,0
485906,0.3572671091783017,-1.5602426184481575,-0.18488593881132218,0
485910,0.3601205462729839,-1.5711528191042954,-0.18555733577477682,0
485914,0.35995269703212024,-1.5773632410162508,-0.18471808957045852,0
485918,0.3596169985503929,-1.5525215533684291,-0.1865644312199588,0
485922,0.35944914930952926,-1.5521858548867018,-0.18404669260700388,0
485926,0.3587777523460746,-1.5622568093385214,-0.18303959716182192,0
485930,0.36247043564507514,-1.5442969405661096,-0.18925001907377736,0
485934,0.36079194323643854,-1.5595712214847028,-0.1843823910887312,0
485937,0.3567635614557107,-1.5669565880827039,-0.1843823910887312,0
485941,0.3601205462729839,-1.5755168993667505,-0.19344625009536887,0
485945,0.3614633401998932,-1.5693064774547951,-0.1818646524757763,0
485949,0.35860990310521096,-1.5666208896009766,-0.18606088349736782,0
485953,0.35995269703212024,-1.578202487220569,-0.18455024032959486,0
485957,0.3579385061417563,-1.5701457236591134,-0.17917906462195773,0
485961,0.3552529182879377,-1.5825665674830243,-0.16927595941100174,0
485965,0.3513923857480735,-1.5800488288700694,-0.1766613260090028,0
485969,0.35374227512016476,-1.5652780956740673,-0.18152895399404897,0
485973,0.35810635538262,-1.5652780956740673,-0.1865644312199588,0
485976,0.36247043564507514,-1.5454718852521552,-0.18639658197909514,0
485980,0.3606240939955749,-1.5605783169298848,-0.17833981841763943,0
485984,0.3532387273975738,-1.5657816433966583,-0.17380788891432059,0
485988,0.3589456015869383,-1.5548714427405204,-0.1766613260090028,0
485992,0.3549172198062104,-1.570817120622568,-0.18303959716182192,0
485996,0.35256733043411914,-1.5724956130312047,-0.18253604943923094,0
486000,0.3522316319523918,-1.5763561455710688,-0.17985046158541237,0
486004,0.3547493705653467,-1.5877698939497977,-0.18236820019836728,0
486008,0.36414892805371174,-1.5681315327687495,-0.18152895399404897,0
486012,0.3651560234988937,-1.5392614633401998,-0.18421454184786754,0
486016,0.3604562447547112,-1.55302510109102,-0.1852216372930495,0
486019,0.35777065690089266,-1.5595712214847028,-0.17917906462195773,0
486023,0.3552529182879377,-1.5696421759365224,-0.18287174792095826,0
486027,0.3587777523460746,-1.5671244373235675,-0.18387884336614022,0
486031,0.36196688792248416,-1.5600747692072938,-0.17968261234454871,0
486035,0.35911345082780194,-1.5498359655146106,-0.18639658197909514,0
486039,0.36498817425803004,-1.5305333028152894,-0.18572518501564048,0
486043,0.36448462653543906,-1.531204699778744,-0.18320744640268558,0
486047,0.3612954909590295,-1.5511787594415198,-0.18337529564354924,0
486051,0.3629739833676661,-1.5466468299382008,-0.18152895399404897,0
486055,0.3673380636301213,-1.5488288700694284,-0.18136110475318531,0
486059,0.3680094605935759,-1.5523537041275655,-0.18220035095750362,0
486062,0.3698558022430762,-1.531708247501335,-0.18606088349736782,0
486066,0.3705271992065308,-1.514419775692378,-0.17766842145418477,0
486070,0.36868085755703056,-1.5281834134431982,-0.18220035095750362,0
486074,0.3688487067978942,-1.5360723277637902,-0.18455024032959486,0
486078,0.3631418326085298,-1.5370794232089722,-0.18622873273823148,0
486082,0.37237354085603114,-1.5283512626840619,-0.18925001907377736,0
486086,0.36700236514839396,-1.5338902876325626,-0.18421454184786754,0
486090,0.36834515907530324,-1.5362401770046539,-0.18387884336614022,0
486094,0.3680094605935759,-1.5506752117189289,-0.17884336614023041,0
486098,0.3621347371633478,-1.5525215533684291,-0.1827038986800946,0
486102,0.36700236514839396,-1.5434576943617913,-0.18203250171663996,0
486105,0.3634775310902571,-1.5449683375295642,-0.19008926527809566,0
486109,0.3668345159075303,-1.5531929503318838,-0.18538948653391316,0
486113,0.36247043564507514,-1.5411078049897,-0.18220035095750362,0
486117,0.35810635538262,-1.5526894026092928,-0.18119325551232165,0
486121,0.35693141069657436,-1.5511787594415198,-0.18958571755550468,0
486125,0.35860990310521096,-1.5577248798352026,-0.18589303425650416,0
486129,0.357602807660029,-1.5585641260395209,-0.1907606622415503,0
486133,0.3604562447547112,-1.5642710002288853,-0.18421454184786754,0
486137,0.3540779736018921,-1.5577248798352026,-0.18790722514686808,0
486141,0.35458152132448306,-1.5783703364614328,-0.18975356679636834,0
486144,0.36280613412680246,-1.5711528191042954,-0.18874647135118638,0
486148,0.35995269703212024,-1.5815594720378423,-0.18958571755550468,0
486152,0.35944914930952926,-1.5674601358052949,-0.19042496375982298,0
486156,0.3609597924773022,-1.556549935149157,-0.1932784008545052,0
486160,0.35340657663843744,-1.564438849469749,-0.18757152666514076,0
486164,0.3549172198062104,-1.5753490501258869,-0.19109636072327763,0
486168,0.355588616769665,-1.572327763790341,-0.1924391546501869,0
486172,0.3579385061417563,-1.5686350804913405,-0.1865644312199588,0
486176,0.35575646601052874,-1.56494239719234,-0.19311055161364155,0
486180,0.35693141069657436,-1.556549935149157,-0.189921416037232,0
486184,0.35659571221484704,-1.563431754024567,-0.19210345616845959,0
486187,0.35995269703212024,-1.5751812008850232,-0.18622873273823148,0
486191,0.36028839551384756,-1.57182421606775,-0.19193560692759593,0
486195,0.35743495841916534,-1.5758525978484779,-0.18371099412527656,0
486199,0.36079194323643854,-1.5684672312504768,-0.18488593881132218,0
486203,0.35860990310521096,-1.5681315327687495,-0.18606088349736782,0
486207,0.35542076752880136,-1.5775310902571145,-0.19059281300068664,0
486211,0.3572671091783017,-1.580720225833524,-0.19109636072327763,0
486215,0.3559243152513924,-1.5825665674830243,-0.18673228046082246,0
486219,0.3629739833676661,-1.5652780956740673,-0.18841077286945906,0
486223,0.3597848477912566,-1.5451361867704279,-0.18757152666514076,0
486227,0.35693141069657436,-1.548996719310292,-0.18421454184786754,0
486230,0.36196688792248416,-1.5463111314564735,-0.1907606622415503,0
486234,0.3562600137331197,-1.557053482871748,-0.18505378805218584,0
486238,0.35810635538262,-1.5630960555428397,-0.18421454184786754,0
486242,0.357602807660029,-1.565445944914931,-0.18723582818341344,0
486246,0.3606240939955749,-1.5651102464332036,-0.18706797894254978,0
486250,0.36196688792248416,-1.5607461661707485,-0.19025711451895932,0
486254,0.3587777523460746,-1.5604104676890211,-0.18690012970168612,0
486258,0.35944914930952926,-1.5538643472953384,-0.1882429236285954,0
486262,0.3606240939955749,-1.5615854123750668,-0.18387884336614022,0
486266,0.36079194323643854,-1.563431754024567,-0.18891432059205004,0
486270,0.3587777523460746,-1.562928206301976,-0.18337529564354924,0
486273,0.3587777523460746,-1.5612497138933394,-0.18841077286945906,0
486277,0.366498817425803,-1.5466468299382008,-0.19277485313191423,0
486281,0.36784161135271226,-1.5345616845960173,-0.19092851148241397,0
486285,0.3651560234988937,-1.5239871824216067,-0.1907606622415503,0
486289,0.36532387273975736,-1.5543678950179294,-0.18874647135118638,0
486293,0.36414892805371174,-1.5526894026092928,-0.19344625009536887,0
486297,0.35995269703212024,-1.5693064774547951,-0.19025711451895932,0
486301,0.3572671091783017,-1.5768596932936598,-0.19126420996414129,0
486305,0.35777065690089266,-1.5682993820096132,-0.19059281300068664,0
486309,0.36079194323643854,-1.5674601358052949,-0.18236820019836728,0
486312,0.3614633401998932,-1.5661173418783856,-0.18958571755550468,0
486316,0.3587777523460746,-1.5647745479514763,-0.19176775768673227,0
486320,0.35810635538262,-1.5662851911192492,-0.19008926527809566,0
486324,0.36112764171816586,-1.5553749904631113,-0.19109636072327763,0
486328,0.3623025864042115,-1.5384222171358815,-0.19193560692759593,0
486332,0.3614633401998932,-1.55302510109102,-0.18673228046082246,0
486336,0.36280613412680246,-1.5609140154116121,-0.19546044098573281,0
486340,0.35995269703212024,-1.5689707789730678,-0.19143205920500495,0
486344,0.3634775310902571,-1.5562142366674296,-0.18555733577477682,0
486348,0.3651560234988937,-1.5298619058518348,-0.19294270237277789,0
486352,0.36666666666666664,-1.5486610208285647,-0.19260700389105057,0
486355,0.3663309681849393,-1.5417792019531547,-0.19277485313191423,0
486359,0.3685130083161669,-1.5360723277637902,-0.19562829022659647,0
486363,0.3688487067978942,-1.5382543678950178,-0.19126420996414129,0
486367,0.36784161135271226,-1.5318760967421987,-0.18925001907377736,0
486371,0.3680094605935759,-1.542114900434882,-0.18841077286945906,0
486375,0.3681773098344396,-1.5491645685511557,-0.189921416037232,0
486379,0.3671702143892576,-1.5382543678950178,-0.18975356679636834,0
486383,0.36616311894407566,-1.5520180056458381,-0.18874647135118638,0
486387,0.36952010376134886,-1.5417792019531547,-0.18706797894254978,0
486391,0.365995269703212,-1.549668116273747,-0.1890821698329137,0
486395,0.3629739833676661,-1.547486076142519,-0.18455024032959486,0
486398,0.36028839551384756,-1.5572213321126116,-0.1843823910887312,0
486402,0.36247043564507514,-1.539093614099336,-0.18371099412527656,0
486406,0.3626382848859388,-1.5552071412222477,-0.1835431448844129,0
486410,0.36532387273975736,-1.569810025177386,-0.189921416037232,0
486414,0.36750591287098494,-1.553528648813611,-0.1915999084458686,0
486418,0.36280613412680246,-1.5594033722438392,-0.19193560692759593,0
486422,0.36280613412680246,-1.5599069199664302,-0.18958571755550468,0
486426,0.3639810788128481,-1.553528648813611,-0.18857862211032272,0
486430,0.36532387273975736,-1.5672922865644312,-0.18958571755550468,0
486434,0.3638132295719844,-1.5442969405661096,-0.18471808957045852,0
486437,0.3592813000686656,-1.549668116273747,-0.1907606622415503,0
486441,0.36112764171816586,-1.5510109102006562,-0.18455024032959486,0
486445,0.3609597924773022,-1.5518501564049745,-0.18690012970168612,0
486449,0.35995269703212024,-1.569810025177386,-0.1907606622415503,0
486453,0.3539101243610284,-1.561417563134203,-0.18925001907377736,0
486457,0.36079194323643854,-1.56494239719234,-0.1852216372930495,0
486461,0.35659571221484704,-1.5688029297322041,-0.19008926527809566,0
486465,0.35944914930952926,-1.5595712214847028,-0.18857862211032272,0
486469,0.35542076752880136,-1.5751812008850232,-0.18572518501564048,0
486473,0.35424582284275574,-1.5558785381857023,-0.19042496375982298,0
486477,0.3540779736018921,-1.5582284275577936,-0.19227130540932325,0
486480,0.3532387273975738,-1.5651102464332036,-0.19092851148241397,0
486484,0.3502174410620279,-1.5681315327687495,-0.19260700389105057,0
486488,0.3523994811932555,-1.5694743266956588,-0.19311055161364155,0
486492,0.3562600137331197,-1.5646066987106126,-0.19176775768673227,0
486496,0.35340657663843744,-1.5694743266956588,-0.19344625009536887,0
486500,0.35777065690089266,-1.5662851911192492,-0.19361409933623253,0
486504,0.3567635614557107,-1.5684672312504768,-0.18706797894254978,0
486508,0.35659571221484704,-1.5711528191042954,-0.19176775768673227,0
486512,0.357602807660029,-1.565949492637522,-0.18471808957045852,0
486516,0.3589456015869383,-1.55806057831693,-0.1843823910887312,0
486520,0.36079194323643854,-1.564438849469749,-0.18874647135118638,0
486523,0.3601205462729839,-1.5768596932936598,-0.18841077286945906,0
486527,0.3597848477912566,-1.554032196536202,-0.1874036774242771,0
486531,0.36163118944075684,-1.5500038147554742,-0.19059281300068664,0
486535,0.3572671091783017,-1.5688029297322041,-0.1852216372930495,0
486539,0.35659571221484704,-1.5701457236591134,-0.18085755703059433,0
486543,0.3597848477912566,-1.5488288700694284,-0.1865644312199588,0
486547,0.357099259937438,-1.54798962386511,-0.18723582818341344,0
486551,0.36414892805371174,-1.5454718852521552,-0.1865644312199588,0
486555,0.35911345082780194,-1.5453040360112915,-0.18841077286945906,0
486559,0.3589456015869383,-1.5437933928435186,-0.18841077286945906,0
486563,0.357602807660029,-1.5604104676890211,-0.18455024032959486,0
486566,0.357602807660029,-1.5605783169298848,-0.18606088349736782,0
486570,0.357099259937438,-1.554032196536202,-0.17045090409704738,0
486574,0.3572671091783017,-1.5666208896009766,-0.18673228046082246,0
486578,0.3601205462729839,-1.5763561455710688,-0.19126420996414129,0
486582,0.35827420462348364,-1.5681315327687495,-0.18303959716182192,0
486586,0.357099259937438,-1.5585641260395209,-0.18673228046082246,0
486590,0.35172808422980084,-1.5557106889448387,-0.18723582818341344,0
486594,0.36079194323643854,-1.5630960555428397,-0.18925001907377736,0
486598,0.3584420538643473,-1.554535744258793,-0.18589303425650416,0
486602,0.3544136720836194,-1.5434576943617913,-0.18975356679636834,0
486605,0.3626382848859388,-1.5543678950179294,-0.18790722514686808,0
486609,0.3634775310902571,-1.5501716639963379,-0.18119325551232165,0
486613,0.36498817425803004,-1.5283512626840619,-0.19361409933623253,0
486617,0.36079194323643854,-1.5506752117189289,-0.19025711451895932,0
486621,0.3638132295719844,-1.5343938353551536,-0.18958571755550468,0
486625,0.3596169985503929,-1.5305333028152894,-0.18572518501564048,0
486629,0.3601205462729839,-1.556046387426566,-0.18925001907377736,0
486633,0.36414892805371174,-1.5518501564049745,-0.19210345616845959,0
486637,0.3648203250171664,-1.5404364080262454,-0.19394979781795987,0
486641,0.36582742046234834,-1.5510109102006562,-0.18807507438773174,0
486645,0.3643167772945754,-1.5333867399099717,-0.18706797894254978,0
486648,0.3651560234988937,-1.5201266498817425,-0.19042496375982298,0
486652,0.36112764171816586,-1.535233081559472,-0.1907606622415503,0
486656,0.36532387273975736,-1.556549935149157,-0.18639658197909514,0
486660,0.36196688792248416,-1.5526894026092928,-0.1924391546501869,0
486664,0.36532387273975736,-1.562928206301976,-0.19025711451895932,0
486668,0.3604562447547112,-1.5651102464332036,-0.1882429236285954,0
486672,0.3634775310902571,-1.5573891813534753,-0.19193560692759593,0
486676,0.3589456015869383,-1.5533607995727474,-0.19143205920500495,0
486680,0.3626382848859388,-1.5617532616159304,-0.18925001907377736,0
486684,0.3579385061417563,-1.563935301747158,-0.1865644312199588,0
486688,0.357602807660029,-1.5637674525062943,-0.18555733577477682,0
486691,0.35777065690089266,-1.5635996032654307,-0.18690012970168612,0
486695,0.35944914930952926,-1.5547035934996567,-0.18236820019836728,0
486699,0.3587777523460746,-1.5605783169298848,-0.18572518501564048,0
486703,0.35424582284275574,-1.5454718852521552,-0.1890821698329137,0
486707,0.36112764171816586,-1.5461432822156098,-0.19210345616845959,0
486711,0.35424582284275574,-1.5414435034714273,-0.18925001907377736,0
486715,0.3572671091783017,-1.5630960555428397,-0.1865644312199588,0
486719,0.3621347371633478,-1.5563820859082933,-0.1924391546501869,0
486723,0.35810635538262,-1.563431754024567,-0.18941786831464102,0
486727,0.3623025864042115,-1.5458075837338825,-0.19277485313191423,0
486730,0.35911345082780194,-1.5446326390478369,-0.18690012970168612,0
486734,0.35693141069657436,-1.5459754329747462,-0.189921416037232,0
486738,0.3596169985503929,-1.5370794232089722,-0.19092851148241397,0
486742,0.3631418326085298,-1.5411078049897,-0.18606088349736782,0
486746,0.36196688792248416,-1.5456397344930188,-0.1907606622415503,0
486750,0.3634775310902571,-1.5437933928435186,-0.2001602197299153,0
486754,0.3596169985503929,-1.5359044785229266,-0.19109636072327763,0
486758,0.36364538033112076,-1.531708247501335,-0.19260700389105057,0
486762,0.35777065690089266,-1.5488288700694284,-0.1915999084458686,0
486766,0.3564278629739834,-1.5597390707255665,-0.18891432059205004,0
486770,0.3609597924773022,-1.555039291981384,-0.1968032349126421,0
486773,0.3567635614557107,-1.5607461661707485,-0.19613183794918745,0
486777,0.3592813000686656,-1.556046387426566,-0.19562829022659647,0
486781,0.3621347371633478,-1.5585641260395209,-0.19529259174486915,0
486785,0.3629739833676661,-1.5518501564049745,-0.19025711451895932,0
486789,0.3597848477912566,-1.539597161821927,-0.19176775768673227,0
486793,0.36247043564507514,-1.533722438391699,-0.18958571755550468,0
486797,0.36448462653543906,-1.5308690012970168,-0.19176775768673227,0
486801,0.35290302891584646,-1.5456397344930188,-0.19277485313191423,0
486805,0.3621347371633478,-1.5461432822156098,-0.18757152666514076,0
486809,0.3535744258793011,-1.5520180056458381,-0.18488593881132218,0
486813,0.35508506904707404,-1.5688029297322041,-0.18119325551232165,0
486816,0.3505531395437552,-1.579713130388342,-0.18706797894254978,0
486820,0.35693141069657436,-1.5642710002288853,-0.19344625009536887,0
486824,0.3621347371633478,-1.5630960555428397,-0.18975356679636834,0
486828,0.36028839551384756,-1.5597390707255665,-0.18606088349736782,0
486832,0.357099259937438,-1.5563820859082933,-0.1835431448844129,0
486836,0.35743495841916534,-1.5671244373235675,-0.18690012970168612,0
486840,0.347699702449073,-1.5704814221408407,-0.18622873273823148,0
486844,0.3523994811932555,-1.5724956130312047,-0.19344625009536887,0
486848,0.3535744258793011,-1.5661173418783856,-0.18220035095750362,0
486852,0.3518959334706645,-1.5770275425345235,-0.18404669260700388,0
486855,0.3596169985503929,-1.5557106889448387,-0.18706797894254978,0
486859,0.357099259937438,-1.5523537041275655,-0.19092851148241397,0
486863,0.35659571221484704,-1.5592355230029755,-0.18925001907377736,0
486867,0.35995269703212024,-1.573838406958114,-0.18874647135118638,0
486871,0.3589456015869383,-1.5625925078202487,-0.1865644312199588,0
486875,0.35609216449225606,-1.5736705577172503,-0.19126420996414129,0
486879,0.357099259937438,-1.562424658579385,-0.18303959716182192,0
486883,0.35743495841916534,-1.5726634622720683,-0.19193560692759593,0
486887,0.36498817425803004,-1.5379186694132905,-0.18891432059205004,0
486891,0.36784161135271226,-1.530701152056153,-0.19059281300068664,0
486895,0.3651560234988937,-1.5201266498817425,-0.18790722514686808,0
486898,0.3648203250171664,-1.5226443884946974,-0.1890821698329137,0
486902,0.36868085755703056,-1.5286869611657892,-0.18757152666514076,0
486906,0.3720378423743038,-1.5362401770046539,-0.19109636072327763,0
486910,0.37086289768825814,-1.5434576943617913,-0.1882429236285954,0
486914,0.37270923933775846,-1.5320439459830624,-0.18606088349736782,0
486918,0.37186999313344016,-1.525833524071107,-0.18572518501564048,0
486922,0.37002365148393984,-1.522812237735561,-0.18203250171663996,0
486926,0.3696879530022125,-1.5187838559548332,-0.18387884336614022,0
486930,0.3676737621118486,-1.5192874036774242,-0.18589303425650416,0
486934,0.3698558022430762,-1.516433966582742,-0.18371099412527656,0
486938,0.3681773098344396,-1.53422598611429,-0.18690012970168612,0
486941,0.3685130083161669,-1.533722438391699,-0.1865644312199588,0
486945,0.37035934996566716,-1.515930418860151,-0.19059281300068664,0
486949,0.365995269703212,-1.5387579156176088,-0.19361409933623253,0
486953,0.3685130083161669,-1.5365758754863812,-0.19495689326314183,0
486957,0.3597848477912566,-1.5310368505378804,-0.18891432059205004,0
486961,0.3634775310902571,-1.5380865186541541,-0.18790722514686808,0
486965,0.36532387273975736,-1.5599069199664302,-0.18790722514686808,0
486969,0.3617990386816205,-1.5552071412222477,-0.20150301365682458,0
486973,0.3626382848859388,-1.55806057831693,-0.18639658197909514,0
486977,0.36280613412680246,-1.5674601358052949,-0.19445334554055085,0
486981,0.35659571221484704,-1.5688029297322041,-0.18975356679636834,0
486984,0.36112764171816586,-1.5547035934996567,-0.19260700389105057,0
486988,0.35911345082780194,-1.5498359655146106,-0.19109636072327763,0
486992,0.3587777523460746,-1.5582284275577936,-0.18807507438773174,0
486996,0.357099259937438,-1.5511787594415198,-0.19344625009536887,0
487000,0.3552529182879377,-1.5699778744182498,-0.19294270237277789,0
487004,0.35743495841916534,-1.5768596932936598,-0.1932784008545052,0
487008,0.35659571221484704,-1.5758525978484779,-0.19361409933623253,0
487012,0.3597848477912566,-1.5508430609597925,-0.18925001907377736,0
487016,0.3606240939955749,-1.557557030594339,-0.19294270237277789,0
487020,0.3596169985503929,-1.5437933928435186,-0.1907606622415503,0
487023,0.35944914930952926,-1.5468146791790645,-0.19126420996414129,0
487027,0.3587777523460746,-1.557557030594339,-0.18773937590600442,0
487031,0.3572671091783017,-1.5714885175860227,-0.1937819485770962,0
487035,0.357602807660029,-1.5656137941557946,-0.19025711451895932,0
487039,0.3612954909590295,-1.5667887388418402,-0.19025711451895932,0
487043,0.35911345082780194,-1.5523537041275655,-0.18757152666514076,0
487047,0.357099259937438,-1.5503395132372015,-0.19059281300068664,0
487051,0.3629739833676661,-1.5454718852521552,-0.19143205920500495,0
487055,0.36582742046234834,-1.5543678950179294,-0.1924391546501869,0
487059,0.3601205462729839,-1.5684672312504768,-0.1874036774242771,0
487063,0.3617990386816205,-1.5553749904631113,-0.19915312428473333,0
487066,0.3643167772945754,-1.540100709544518,-0.18925001907377736,0
487070,0.35542076752880136,-1.5672922865644312,-0.19277485313191423,0
487074,0.3584420538643473,-1.557053482871748,-0.18925001907377736,0
487078,0.3606240939955749,-1.5646066987106126,-0.1852216372930495,0
487082,0.35827420462348364,-1.5525215533684291,-0.18891432059205004,0
487086,0.35693141069657436,-1.5461432822156098,-0.1852216372930495,0
487090,0.3589456015869383,-1.5454718852521552,-0.18925001907377736,0
487094,0.35860990310521096,-1.5567177843900206,-0.18841077286945906,0
487098,0.3643167772945754,-1.5387579156176088,-0.17481498435950255,0
487102,0.3621347371633478,-1.5427862973983366,-0.19025711451895932,0
487106,0.365995269703212,-1.5521858548867018,-0.18555733577477682,0
487109,0.36364538033112076,-1.5429541466392003,-0.18488593881132218,0
487113,0.3643167772945754,-1.5354009308003356,-0.18220035095750362,0
487117,0.3651560234988937,-1.524826428625925,-0.18455024032959486,0
487121,0.36330968184939344,-1.5335545891508353,-0.18589303425650416,0
487125,0.3705271992065308,-1.5162661173418783,-0.19344625009536887,0
487129,0.36952010376134886,-1.5260013733119706,-0.1932784008545052,0
487133,0.3698558022430762,-1.523315785458152,-0.18673228046082246,0
487137,0.3681773098344396,-1.540604257267109,-0.18287174792095826,0
487141,0.3685130083161669,-1.535736629282063,-0.19059281300068664,0
487145,0.3629739833676661,-1.5374151216906995,-0.18606088349736782,0
487149,0.36196688792248416,-1.5414435034714273,-0.18068970778973067,0
487152,0.3646524757763027,-1.5389257648584724,-0.18320744640268558,0
487156,0.35827420462348364,-1.5409399557488364,-0.18303959716182192,0
487160,0.365491721980621,-1.55806057831693,-0.18035400930800335,0
487164,0.36532387273975736,-1.5642710002288853,-0.18052185854886701,0
487168,0.3626382848859388,-1.5642710002288853,-0.18773937590600442,0
487172,0.36112764171816586,-1.553528648813611,-0.18673228046082246,0
487176,0.36414892805371174,-1.548493171587701,-0.18052185854886701,0
487180,0.3626382848859388,-1.5533607995727474,-0.18203250171663996,0
487184,0.36280613412680246,-1.5600747692072938,-0.181025406271458,0
487188,0.36414892805371174,-1.5513466086823835,-0.1932784008545052,0
487191,0.3629739833676661,-1.5468146791790645,-0.1874036774242771,0
487195,0.3646524757763027,-1.5369115739681085,-0.1890821698329137,0
487199,0.36700236514839396,-1.5365758754863812,-0.18773937590600442,0
487203,0.3730449378194858,-1.5197909514000152,-0.18455024032959486,0
487207,0.3671702143892576,-1.5281834134431982,-0.18572518501564048,0
487211,0.3705271992065308,-1.5137483787289234,-0.18639658197909514,0
487215,0.3696879530022125,-1.517944609750515,-0.18975356679636834,0
487219,0.3710307469291218,-1.5241550316624703,-0.18841077286945906,0
487223,0.3706950484473945,-1.539597161821927,-0.1890821698329137,0
487227,0.36868085755703056,-1.5379186694132905,-0.18555733577477682,0
487231,0.3725413900968948,-1.5266727702754253,-0.18757152666514076,0
487234,0.36952010376134886,-1.534729533836881,-0.18068970778973067,0
487238,0.36868085755703056,-1.5354009308003356,-0.18303959716182192,0
487242,0.3671702143892576,-1.5348973830777446,-0.18387884336614022,0
487246,0.3715342946517128,-1.5375829709315632,-0.18236820019836728,0
487250,0.3648203250171664,-1.5303654535744258,-0.18169680323491263,0
487254,0.3696879530022125,-1.5251621271076523,-0.1843823910887312,0
487258,0.3685130083161669,-1.5338902876325626,-0.18320744640268558,0
487262,0.3701915007248035,-1.526840619516289,-0.18421454184786754,0
487266,0.3696879530022125,-1.5239871824216067,-0.18505378805218584,0
487270,0.36700236514839396,-1.5338902876325626,-0.1827038986800946,0
487274,0.3693522545204852,-1.5365758754863812,-0.19025711451895932,0
487277,0.36196688792248416,-1.543625543602655,-0.1874036774242771,0
487281,0.3646524757763027,-1.5333867399099717,-0.18857862211032272,0
487285,0.36163118944075684,-1.5384222171358815,-0.18320744640268558,0
487289,0.3663309681849393,-1.5394293125810634,-0.18404669260700388,0
487293,0.36280613412680246,-1.5523537041275655,-0.18404669260700388,0
487297,0.36616311894407566,-1.5572213321126116,-0.18421454184786754,0
487301,0.36330968184939344,-1.5520180056458381,-0.1818646524757763,0
487305,0.36330968184939344,-1.5521858548867018,-0.18925001907377736,0
487309,0.3601205462729839,-1.5674601358052949,-0.18841077286945906,0
487313,0.3596169985503929,-1.543625543602655,-0.18371099412527656,0
487316,0.3623025864042115,-1.5360723277637902,-0.18790722514686808,0
487320,0.3572671091783017,-1.5637674525062943,-0.18455024032959486,0
487324,0.35777065690089266,-1.5605783169298848,-0.1835431448844129,0
487328,0.35860990310521096,-1.5615854123750668,-0.18673228046082246,0
487332,0.3626382848859388,-1.5600747692072938,-0.18421454184786754,0
487336,0.3562600137331197,-1.561417563134203,-0.18387884336614022,0
487340,0.35827420462348364,-1.5506752117189289,-0.18455024032959486,0
487344,0.3614633401998932,-1.5604104676890211,-0.18119325551232165,0
487348,0.3587777523460746,-1.562424658579385,-0.1852216372930495,0
487352,0.3597848477912566,-1.5434576943617913,-0.18220035095750362,0
487356,0.35542076752880136,-1.562928206301976,-0.18622873273823148,0
487359,0.3614633401998932,-1.5607461661707485,-0.18220035095750362,0
487363,0.3587777523460746,-1.5620889600976577,-0.17867551689936675,0
487367,0.3614633401998932,-1.5607461661707485,-0.18287174792095826,0
487371,0.36666666666666664,-1.5592355230029755,-0.1835431448844129,0
487375,0.36532387273975736,-1.5666208896009766,-0.18471808957045852,0
487379,0.3656595712214847,-1.5609140154116121,-0.18303959716182192,0
487383,0.3648203250171664,-1.5442969405661096,-0.18220035095750362,0
487387,0.3680094605935759,-1.5513466086823835,-0.17951476310368505,0
487391,0.3668345159075303,-1.555039291981384,-0.18136110475318531,0
487395,0.36700236514839396,-1.5451361867704279,-0.18236820019836728,0
487399,0.365491721980621,-1.563431754024567,-0.18925001907377736,0
487402,0.36834515907530324,-1.5505073624780652,-0.18404669260700388,0
487406,0.3668345159075303,-1.5557106889448387,-0.18035400930800335,0
487410,0.36532387273975736,-1.563935301747158,-0.18119325551232165,0
487414,0.3634775310902571,-1.5543678950179294,-0.18203250171663996,0
487418,0.3646524757763027,-1.539093614099336,-0.18303959716182192,0
487422,0.36028839551384756,-1.555039291981384,-0.18136110475318531,0
487426,0.36616311894407566,-1.557053482871748,-0.17951476310368505,0
487430,0.36498817425803004,-1.5310368505378804,-0.18236820019836728,0
487434,0.3671702143892576,-1.5384222171358815,-0.1827038986800946,0
487438,0.3663309681849393,-1.5379186694132905,-0.17985046158541237,0
487442,0.36616311894407566,-1.5516823071641108,-0.17800411993591211,0
487445,0.36750591287098494,-1.5468146791790645,-0.1785076676585031,0
487449,0.3643167772945754,-1.5343938353551536,-0.1843823910887312,0
487453,0.3668345159075303,-1.543121995880064,-0.18337529564354924,0
487457,0.3680094605935759,-1.5511787594415198,-0.18320744640268558,0
487461,0.3680094605935759,-1.5558785381857023,-0.17901121538109407,0
487465,0.36280613412680246,-1.5615854123750668,-0.17917906462195773,0
487469,0.3631418326085298,-1.5513466086823835,-0.18001831082627603,0
487473,0.36498817425803004,-1.5281834134431982,-0.1801861600671397,0
487477,0.36868085755703056,-1.535233081559472,-0.18169680323491263,0
487481,0.3706950484473945,-1.5459754329747462,-0.1843823910887312,0
487484,0.36834515907530324,-1.5392614633401998,-0.17515068284122987,0
487488,0.365995269703212,-1.5516823071641108,-0.1843823910887312,0
487492,0.3626382848859388,-1.556549935149157,-0.18119325551232165,0
487496,0.3681773098344396,-1.5538643472953384,-0.18371099412527656,0
487500,0.36750591287098494,-1.5439612420843822,-0.18606088349736782,0
487504,0.36868085755703056,-1.5404364080262454,-0.17716487373159379,0
487508,0.3673380636301213,-1.5382543678950178,-0.18085755703059433,0
487512,0.3693522545204852,-1.5354009308003356,-0.1801861600671397,0
487516,0.36666666666666664,-1.5488288700694284,-0.18690012970168612,0
487520,0.3621347371633478,-1.5518501564049745,-0.18471808957045852,0
487524,0.366498817425803,-1.5414435034714273,-0.19042496375982298,0
487527,0.3651560234988937,-1.5209658960860608,-0.1793469138628214,0
487531,0.3706950484473945,-1.5367437247272449,-0.1843823910887312,0
487535,0.3673380636301213,-1.5402685587853817,-0.17951476310368505,0
487539,0.3643167772945754,-1.5315403982604714,-0.18589303425650416,0
487543,0.36364538033112076,-1.5298619058518348,-0.18236820019836728,0
487547,0.3663309681849393,-1.5313725490196077,-0.181025406271458,0
487551,0.3646524757763027,-1.5350652323186083,-0.18387884336614022,0
487555,0.365491721980621,-1.5542000457770657,-0.18052185854886701,0
487559,0.36868085755703056,-1.5446326390478369,-0.18236820019836728,0
487563,0.36247043564507514,-1.5323796444647897,-0.18253604943923094,0
487567,0.3621347371633478,-1.5385900663767451,-0.18068970778973067,0
487570,0.3606240939955749,-1.5536964980544747,-0.18320744640268558,0
487574,0.36163118944075684,-1.5454718852521552,-0.1843823910887312,0
487578,0.3597848477912566,-1.535736629282063,-0.1785076676585031,0
487582,0.3604562447547112,-1.5468146791790645,-0.17917906462195773,0
487586,0.3651560234988937,-1.5281834134431982,-0.18371099412527656,0
487590,0.3612954909590295,-1.5453040360112915,-0.18136110475318531,0
487594,0.3663309681849393,-1.5427862973983366,-0.18337529564354924,0
487598,0.3631418326085298,-1.543121995880064,-0.18505378805218584,0
487602,0.36112764171816586,-1.544129091325246,-0.1827038986800946,0
487606,0.36582742046234834,-1.5491645685511557,-0.18723582818341344,0
487609,0.36750591287098494,-1.5446326390478369,-0.18790722514686808,0
487613,0.365491721980621,-1.5578927290760662,-0.18387884336614022,0
487617,0.3680094605935759,-1.5553749904631113,-0.1818646524757763,0
487621,0.3717021438925765,-1.5365758754863812,-0.18589303425650416,0
487625,0.3701915007248035,-1.5278477149614709,-0.18589303425650416,0
487629,0.36498817425803004,-1.5216372930495154,-0.1818646524757763,0
487633,0.3676737621118486,-1.5231479362172884,-0.18337529564354924,0
487637,0.365995269703212,-1.542114900434882,-0.18941786831464102,0
487641,0.36666666666666664,-1.5528572518501564,-0.1865644312199588,0
487645,0.3646524757763027,-1.539093614099336,-0.19126420996414129,0
487649,0.3673380636301213,-1.5394293125810634,-0.18622873273823148,0
487652,0.3706950484473945,-1.5456397344930188,-0.18404669260700388,0
487656,0.36666666666666664,-1.5531929503318838,-0.18303959716182192,0
487660,0.36666666666666664,-1.5523537041275655,-0.1827038986800946,0
487664,0.3621347371633478,-1.5461432822156098,-0.18773937590600442,0
487668,0.36112764171816586,-1.5463111314564735,-0.18857862211032272,0
487672,0.3629739833676661,-1.5451361867704279,-0.18119325551232165,0
487676,0.36028839551384756,-1.5578927290760662,-0.17515068284122987,0
487680,0.3549172198062104,-1.5686350804913405,-0.17431143663691157,0
487684,0.3567635614557107,-1.5714885175860227,-0.17833981841763943,0
487688,0.3612954909590295,-1.5657816433966583,-0.18455024032959486,0
487692,0.37002365148393984,-1.5404364080262454,-0.1882429236285954,0
487695,0.3676737621118486,-1.5293583581292438,-0.18287174792095826,0
487699,0.365491721980621,-1.55806057831693,-0.17884336614023041,0
487703,0.3614633401998932,-1.5635996032654307,-0.18136110475318531,0
487707,0.35659571221484704,-1.563431754024567,-0.18320744640268558,0
487711,0.35860990310521096,-1.561921110856794,-0.1827038986800946,0
487715,0.3559243152513924,-1.5746776531624322,-0.17985046158541237,0
487719,0.35458152132448306,-1.5897840848401616,-0.18052185854886701,0
487723,0.35777065690089266,-1.5755168993667505,-0.18455024032959486,0
487727,0.3609597924773022,-1.5617532616159304,-0.17867551689936675,0
487731,0.36666666666666664,-1.5585641260395209,-0.17917906462195773,0
487735,0.36028839551384756,-1.5562142366674296,-0.17531853208209353,0
487738,0.36079194323643854,-1.5604104676890211,-0.1766613260090028,0
487742,0.3572671091783017,-1.5719920653086137,-0.18001831082627603,0
487746,0.3604562447547112,-1.5679636835278858,-0.18068970778973067,0
487750,0.35810635538262,-1.5682993820096132,-0.181025406271458,0
487754,0.35810635538262,-1.5674601358052949,-0.17867551689936675,0
487758,0.3606240939955749,-1.5677958342870222,-0.17548638132295719,0
487762,0.36498817425803004,-1.5350652323186083,-0.17951476310368505,0
487766,0.36448462653543906,-1.5328831921873807,-0.17817196917677577,0
487770,0.36750591287098494,-1.5412756542305637,-0.17481498435950255,0
487774,0.3685130083161669,-1.5380865186541541,-0.17548638132295719,0
487777,0.3722056916151675,-1.5407721065079727,-0.17833981841763943,0
487781,0.3713664454108491,-1.543121995880064,-0.18320744640268558,0
487785,0.3742198825055314,-1.5354009308003356,-0.17985046158541237,0
487789,0.3713664454108491,-1.5392614633401998,-0.17598992904554817,0
487793,0.3701915007248035,-1.5271763179980162,-0.18136110475318531,0
487797,0.3705271992065308,-1.513916227969787,-0.1827038986800946,0
487801,0.3688487067978942,-1.5254978255893796,-0.1801861600671397,0
487805,0.3705271992065308,-1.5119020370794232,-0.18572518501564048,0
487809,0.3713664454108491,-1.5266727702754253,-0.17985046158541237,0
487813,0.37237354085603114,-1.5234836346990157,-0.18572518501564048,0
487817,0.3701915007248035,-1.5226443884946974,-0.18371099412527656,0
487820,0.37119859616998546,-1.5313725490196077,-0.18555733577477682,0
487824,0.3720378423743038,-1.5364080262455175,-0.1835431448844129,0
487828,0.3680094605935759,-1.5464789806973371,-0.18471808957045852,0
487832,0.3676737621118486,-1.5369115739681085,-0.18589303425650416,0
487836,0.3621347371633478,-1.542114900434882,-0.18001831082627603,0
487840,0.36498817425803004,-1.524322880903334,-0.18488593881132218,0
487844,0.3629739833676661,-1.5320439459830624,-0.181025406271458,0
487848,0.36079194323643854,-1.55302510109102,-0.1818646524757763,0
487852,0.3720378423743038,-1.5486610208285647,-0.18253604943923094,0
487856,0.35995269703212024,-1.5674601358052949,-0.18287174792095826,0
487860,0.357099259937438,-1.5536964980544747,-0.17985046158541237,0
487863,0.3631418326085298,-1.5515144579232472,-0.1827038986800946,0
487867,0.3629739833676661,-1.5449683375295642,-0.18287174792095826,0
487871,0.36532387273975736,-1.56494239719234,-0.18421454184786754,0
487875,0.3601205462729839,-1.5726634622720683,-0.18169680323491263,0
487879,0.3601205462729839,-1.57870603494316,-0.18723582818341344,0
487883,0.36079194323643854,-1.5740062561989776,-0.18035400930800335,0
487887,0.3606240939955749,-1.572327763790341,-0.18052185854886701,0
487891,0.3584420538643473,-1.5602426184481575,-0.17951476310368505,0
487895,0.35743495841916534,-1.570817120622568,-0.18371099412527656,0
487899,0.3604562447547112,-1.5662851911192492,-0.18119325551232165,0
487902,0.36196688792248416,-1.5563820859082933,-0.18287174792095826,0
487906,0.3609597924773022,-1.5533607995727474,-0.18455024032959486,0
487910,0.35860990310521096,-1.55806057831693,-0.18320744640268558,0
487914,0.36079194323643854,-1.5617532616159304,-0.18236820019836728,0
487918,0.3589456015869383,-1.5547035934996567,-0.17884336614023041,0
487922,0.3589456015869383,-1.5466468299382008,-0.18001831082627603,0
487926,0.3579385061417563,-1.5563820859082933,-0.1775005722133211,0
487930,0.3623025864042115,-1.540100709544518,-0.18287174792095826,0
487934,0.3559243152513924,-1.5637674525062943,-0.1818646524757763,0
487938,0.3579385061417563,-1.561417563134203,-0.18421454184786754,0
487942,0.35827420462348364,-1.5508430609597925,-0.17817196917677577,0
487945,0.3518959334706645,-1.5721599145494773,-0.17817196917677577,0
487949,0.36330968184939344,-1.5609140154116121,-0.18303959716182192,0
487953,0.3597848477912566,-1.5451361867704279,-0.17364003967345693,0
487957,0.3612954909590295,-1.5578927290760662,-0.18085755703059433,0
487961,0.3596169985503929,-1.5417792019531547,-0.1741435873960479,0
487965,0.3651560234988937,-1.526840619516289,-0.18068970778973067,0
487969,0.3634775310902571,-1.5389257648584724,-0.18236820019836728,0
487973,0.3621347371633478,-1.5429541466392003,-0.17968261234454871,0
487977,0.36112764171816586,-1.5434576943617913,-0.18035400930800335,0
487981,0.35944914930952926,-1.5501716639963379,-0.17968261234454871,0
487985,0.3617990386816205,-1.5442969405661096,-0.17817196917677577,0
487988,0.3596169985503929,-1.5385900663767451,-0.17884336614023041,0
487992,0.36448462653543906,-1.5318760967421987,-0.17380788891432059,0
487996,0.36532387273975736,-1.5557106889448387,-0.17565423056382085,0
488000,0.36582742046234834,-1.554535744258793,-0.17800411993591211,0
488004,0.3668345159075303,-1.5557106889448387,-0.18891432059205004,0
488008,0.36616311894407566,-1.5583962767986572,-0.18152895399404897,0
488012,0.36247043564507514,-1.5446326390478369,-0.18169680323491263,0
488016,0.3617990386816205,-1.5468146791790645,-0.17917906462195773,0
488020,0.3713664454108491,-1.5491645685511557,-0.1766613260090028,0
488024,0.36112764171816586,-1.548996719310292,-0.17565423056382085,0
488028,0.3547493705653467,-1.5775310902571145,-0.17380788891432059,0
488031,0.35542076752880136,-1.580720225833524,-0.16961165789272906,0
488035,0.3579385061417563,-1.5768596932936598,-0.17649347676813915,0
488039,0.35458152132448306,-1.5852521553368428,-0.18387884336614022,0
488043,0.35860990310521096,-1.5751812008850232,-0.16877241168841076,0
488047,0.3589456015869383,-1.5595712214847028,-0.17632562752727549,0
488051,0.3579385061417563,-1.5630960555428397,-0.17565423056382085,0
488055,0.3597848477912566,-1.5444647898069732,-0.17380788891432059,0
488059,0.357099259937438,-1.5448004882887005,-0.17766842145418477,0
488063,0.3606240939955749,-1.5595712214847028,-0.1793469138628214,0
488067,0.3572671091783017,-1.5676279850461585,-0.17985046158541237,0
488070,0.3648203250171664,-1.5468146791790645,-0.18119325551232165,0
488074,0.3606240939955749,-1.5572213321126116,-0.181025406271458,0
488078,0.3643167772945754,-1.5399328603036544,-0.1785076676585031,0
488082,0.36532387273975736,-1.5583962767986572,-0.1827038986800946,0
488086,0.36532387273975736,-1.56494239719234,-0.17951476310368505,0
488090,0.36834515907530324,-1.5491645685511557,-0.18052185854886701,0
488094,0.3690165560387579,-1.5348973830777446,-0.18169680323491263,0
488098,0.37186999313344016,-1.5260013733119706,-0.18068970778973067,0
488102,0.36918440527962154,-1.5221408407721064,-0.17481498435950255,0
488106,0.3634775310902571,-1.532211795223926,-0.18085755703059433,0
488110,0.365995269703212,-1.542618448157473,-0.17179369802395666,0
488113,0.36364538033112076,-1.53422598611429,-0.1766613260090028,0
488117,0.3656595712214847,-1.5468146791790645,-0.17548638132295719,0
488121,0.365491721980621,-1.5620889600976577,-0.17649347676813915,0
488125,0.3626382848859388,-1.562424658579385,-0.17565423056382085,0
488129,0.36364538033112076,-1.5407721065079727,-0.17565423056382085,0
488133,0.3685130083161669,-1.535233081559472,-0.17917906462195773,0
488137,0.36330968184939344,-1.5419470511940183,-0.17380788891432059,0
488141,0.3639810788128481,-1.541611352712291,-0.17464713511863889,0
488145,0.36330968184939344,-1.5434576943617913,-0.1766613260090028,0
488149,0.3587777523460746,-1.5568856336308843,-0.17045090409704738,0
488153,0.36247043564507514,-1.5417792019531547,-0.1749828336003662,0
488156,0.3631418326085298,-1.5429541466392003,-0.17531853208209353,0
488160,0.36414892805371174,-1.5439612420843822,-0.17833981841763943,0
488164,0.3601205462729839,-1.56494239719234,-0.1758220798046845,0
488168,0.35575646601052874,-1.5635996032654307,-0.17598992904554817,0
488172,0.35860990310521096,-1.5677958342870222,-0.1749828336003662,0
488176,0.357602807660029,-1.562928206301976,-0.17531853208209353,0
488180,0.357602807660029,-1.5615854123750668,-0.17632562752727549,0
488184,0.3502174410620279,-1.5669565880827039,-0.17615777828641183,0
488188,0.3502174410620279,-1.5699778744182498,-0.17515068284122987,0
488192,0.357602807660029,-1.5656137941557946,-0.16977950713359272,0
488195,0.3584420538643473,-1.557557030594339,-0.1707866025787747,0
488199,0.3596169985503929,-1.539093614099336,-0.17766842145418477,0
488203,0.3567635614557107,-1.5526894026092928,-0.17632562752727549,0
488207,0.36028839551384756,-1.5583962767986572,-0.17615777828641183,0
488211,0.35944914930952926,-1.555039291981384,-0.17481498435950255,0
488215,0.3584420538643473,-1.5481574731059737,-0.17951476310368505,0
488219,0.35609216449225606,-1.566453040360113,-0.17716487373159379,0
488223,0.3597848477912566,-1.5432898451209276,-0.17699702449073013,0
488227,0.35424582284275574,-1.5369115739681085,-0.17632562752727549,0
488231,0.3606240939955749,-1.553528648813611,-0.16910811017013808,0
488235,0.35827420462348364,-1.5508430609597925,-0.16793316548409246,0
488238,0.3579385061417563,-1.557053482871748,-0.17884336614023041,0
488242,0.3609597924773022,-1.5516823071641108,-0.17716487373159379,0
488246,0.35542076752880136,-1.5642710002288853,-0.17548638132295719,0
488250,0.3592813000686656,-1.5567177843900206,-0.17515068284122987,0
488254,0.36028839551384756,-1.5651102464332036,-0.18052185854886701,0
488258,0.35911345082780194,-1.5543678950179294,-0.17129015030136568,0
488262,0.35810635538262,-1.5592355230029755,-0.1775005722133211,0
488266,0.3617990386816205,-1.5526894026092928,-0.17347219043259327,0
488270,0.3626382848859388,-1.5568856336308843,-0.17380788891432059,0
488274,0.3673380636301213,-1.5501716639963379,-0.17145799954222934,0
488278,0.3651560234988937,-1.5301976043335621,-0.1775005722133211,0
488281,0.36364538033112076,-1.5271763179980162,-0.17733272297245745,0
488285,0.3629739833676661,-1.531708247501335,-0.171625848783093,0
488289,0.3626382848859388,-1.5498359655146106,-0.17112230106050202,0
488293,0.35944914930952926,-1.5459754329747462,-0.17045090409704738,0
488297,0.35911345082780194,-1.5463111314564735,-0.1741435873960479,0
488301,0.3626382848859388,-1.5572213321126116,-0.1741435873960479,0
488305,0.3638132295719844,-1.5384222171358815,-0.17397573815518425,0
488309,0.3617990386816205,-1.5429541466392003,-0.17028305485618372,0
488313,0.36247043564507514,-1.5359044785229266,-0.18169680323491263,0
488317,0.3623025864042115,-1.5318760967421987,-0.17313649195086595,0
488321,0.36163118944075684,-1.5379186694132905,-0.17447928587777523,0
488324,0.35860990310521096,-1.5533607995727474,-0.17464713511863889,0
488328,0.36330968184939344,-1.5506752117189289,-0.1686045624475471,0
488332,0.35693141069657436,-1.5468146791790645,-0.17817196917677577,0
488336,0.3579385061417563,-1.5568856336308843,-0.17598992904554817,0
488340,0.35777065690089266,-1.5587319752803845,-0.17179369802395666,0
488344,0.3579385061417563,-1.561417563134203,-0.17699702449073013,0
488348,0.35995269703212024,-1.5716563668268864,-0.1758220798046845,0
488352,0.36414892805371174,-1.5567177843900206,-0.1733043411917296,0
488356,0.35944914930952926,-1.5523537041275655,-0.18119325551232165,0
488360,0.3626382848859388,-1.5582284275577936,-0.17447928587777523,0
488363,0.36112764171816586,-1.554032196536202,-0.17347219043259327,0
488367,0.36028839551384756,-1.5597390707255665,-0.17766842145418477,0
488371,0.3601205462729839,-1.5672922865644312,-0.17649347676813915,0
488375,0.3579385061417563,-1.5661173418783856,-0.17179369802395666,0
488379,0.3626382848859388,-1.5642710002288853,-0.1766613260090028,0
488383,0.3587777523460746,-1.5647745479514763,-0.17447928587777523,0
488387,0.36364538033112076,-1.5466468299382008,-0.17649347676813915,0
488391,0.35995269703212024,-1.5676279850461585,-0.17313649195086595,0
488395,0.35911345082780194,-1.5558785381857023,-0.16994735637445638,0
488399,0.3592813000686656,-1.5513466086823835,-0.17649347676813915,0
488403,0.36582742046234834,-1.5521858548867018,-0.17716487373159379,0
488406,0.3626382848859388,-1.5557106889448387,-0.17766842145418477,0
488410,0.3648203250171664,-1.5422827496757456,-0.17615777828641183,0
488414,0.3589456015869383,-1.542618448157473,-0.17028305485618372,0
488418,0.355588616769665,-1.5562142366674296,-0.17481498435950255,0
488422,0.3646524757763027,-1.543121995880064,-0.17565423056382085,0
488426,0.35944914930952926,-1.5495002670328832,-0.16826886396581978,0
488430,0.3592813000686656,-1.5510109102006562,-0.17028305485618372,0
488434,0.355588616769665,-1.5635996032654307,-0.17112230106050202,0
488438,0.35827420462348364,-1.5520180056458381,-0.17380788891432059,0
488442,0.3643167772945754,-1.5389257648584724,-0.17968261234454871,0
488446,0.36330968184939344,-1.543121995880064,-0.17531853208209353,0
488449,0.3621347371633478,-1.5466468299382008,-0.17884336614023041,0
488453,0.3629739833676661,-1.5434576943617913,-0.1749828336003662,0
488457,0.3572671091783017,-1.5622568093385214,-0.17682917524986647,0
488461,0.36280613412680246,-1.5635996032654307,-0.1758220798046845,0
488465,0.36330968184939344,-1.555039291981384,-0.17901121538109407,0
488469,0.3648203250171664,-1.542618448157473,-0.17833981841763943,0
488473,0.36028839551384756,-1.5538643472953384,-0.17682917524986647,0
488477,0.3643167772945754,-1.5394293125810634,-0.17649347676813915,0
488481,0.35995269703212024,-1.5635996032654307,-0.1766613260090028,0
488485,0.3648203250171664,-1.5453040360112915,-0.17766842145418477,0
488488,0.3617990386816205,-1.5432898451209276,-0.18152895399404897,0
488492,0.3612954909590295,-1.5573891813534753,-0.17800411993591211,0
488496,0.36280613412680246,-1.557557030594339,-0.17800411993591211,0
488500,0.3648203250171664,-1.541611352712291,-0.17565423056382085,0
488504,0.3567635614557107,-1.5533607995727474,-0.17112230106050202,0
488508,0.3587777523460746,-1.5590676737621119,-0.16910811017013808,0
488512,0.3601205462729839,-1.5684672312504768,-0.19864957656214235,0
488516,0.3562600137331197,-1.5671244373235675,-0.17364003967345693,0
488520,0.35995269703212024,-1.581223773556115,-0.17515068284122987,0
488524,0.35693141069657436,-1.5652780956740673,-0.16961165789272906,0
488528,0.35374227512016476,-1.55806057831693,-0.1749828336003662,0
488531,0.3572671091783017,-1.569810025177386,-0.17280079346913862,0
488535,0.35810635538262,-1.5677958342870222,-0.16843671320668344,0
488539,0.3606240939955749,-1.5699778744182498,-0.17364003967345693,0
488543,0.3634775310902571,-1.5585641260395209,-0.17364003967345693,0
488547,0.3532387273975738,-1.5615854123750668,-0.1741435873960479,0
488551,0.3604562447547112,-1.5612497138933394,-0.17632562752727549,0
488555,0.35743495841916534,-1.570313572899977,-0.17447928587777523,0
488559,0.35944914930952926,-1.5597390707255665,-0.17766842145418477,0
488563,0.3589456015869383,-1.5552071412222477,-0.1733043411917296,0
488567,0.3629739833676661,-1.548493171587701,-0.1652475776302739,0
488571,0.3638132295719844,-1.5360723277637902,-0.18387884336614022,0
488574,0.36666666666666664,-1.5500038147554742,-0.17481498435950255,0
488578,0.36280613412680246,-1.5590676737621119,-0.17548638132295719,0
488582,0.3621347371633478,-1.5604104676890211,-0.17447928587777523,0
488586,0.3623025864042115,-1.5434576943617913,-0.17800411993591211,0
488590,0.36247043564507514,-1.5345616845960173,-0.18371099412527656,0
488594,0.3621347371633478,-1.5424505989166093,-0.1785076676585031,0
488598,0.3626382848859388,-1.554535744258793,-0.1793469138628214,0
488602,0.36079194323643854,-1.5585641260395209,-0.17783627069504843,0
488606,0.36079194323643854,-1.5622568093385214,-0.18287174792095826,0
488610,0.3614633401998932,-1.5622568093385214,-0.17766842145418477,0
488613,0.36280613412680246,-1.5600747692072938,-0.18555733577477682,0
488617,0.3562600137331197,-1.5627603570611124,-0.18035400930800335,0
488621,0.35860990310521096,-1.5622568093385214,-0.17095445181963836,0
488625,0.3597848477912566,-1.5444647898069732,-0.17531853208209353,0
488629,0.3540779736018921,-1.5510109102006562,-0.17531853208209353,0
488633,0.3579385061417563,-1.5578927290760662,-0.17901121538109407,0
488637,0.3631418326085298,-1.5461432822156098,-0.17632562752727549,0
488641,0.3663309681849393,-1.5446326390478369,-0.1827038986800946,0
488645,0.355588616769665,-1.55302510109102,-0.16843671320668344,0
488649,0.35911345082780194,-1.5516823071641108,-0.1694438086518654,0
488653,0.35458152132448306,-1.5746776531624322,-0.1758220798046845,0
488656,0.35777065690089266,-1.5693064774547951,-0.1793469138628214,0
488660,0.357099259937438,-1.5573891813534753,-0.18001831082627603,0
488664,0.3547493705653467,-1.581223773556115,-0.1775005722133211,0
488668,0.3562600137331197,-1.572831311512932,-0.17095445181963836,0
488672,0.35542076752880136,-1.57870603494316,-0.17800411993591211,0
488676,0.3621347371633478,-1.5677958342870222,-0.17061875333791104,0
488680,0.35777065690089266,-1.5646066987106126,-0.17364003967345693,0
488684,0.35256733043411914,-1.5672922865644312,-0.1733043411917296,0
488688,0.35038529030289156,-1.5667887388418402,-0.17598992904554817,0
488692,0.3523994811932555,-1.5688029297322041,-0.1707866025787747,0
488696,0.3507209887846189,-1.5798809796292057,-0.1766613260090028,0
488699,0.35508506904707404,-1.5778667887388418,-0.16894026092927442,0
488703,0.3592813000686656,-1.5605783169298848,-0.17397573815518425,0
488707,0.36750591287098494,-1.5521858548867018,-0.17145799954222934,0
488711,0.3681773098344396,-1.5562142366674296,-0.1874036774242771,0
488715,0.3685130083161669,-1.5446326390478369,-0.17951476310368505,0
488719,0.36700236514839396,-1.5377508201724268,-0.17867551689936675,0
488723,0.3663309681849393,-1.5439612420843822,-0.16977950713359272,0
488727,0.3617990386816205,-1.544129091325246,-0.1775005722133211,0
488731,0.36448462653543906,-1.5308690012970168,-0.17565423056382085,0
488735,0.365491721980621,-1.5548714427405204,-0.17464713511863889,0
488739,0.3688487067978942,-1.5464789806973371,-0.17884336614023041,0
488742,0.3673380636301213,-1.5404364080262454,-0.18119325551232165,0
488746,0.3705271992065308,-1.5181124589913786,-0.17783627069504843,0
488750,0.366498817425803,-1.5281834134431982,-0.17531853208209353,0
488754,0.3634775310902571,-1.5374151216906995,-0.17431143663691157,0
488758,0.36834515907530324,-1.5367437247272449,-0.17716487373159379,0
488762,0.3680094605935759,-1.5466468299382008,-0.17800411993591211,0
488766,0.36868085755703056,-1.5417792019531547,-0.17699702449073013,0
488770,0.36196688792248416,-1.5454718852521552,-0.17565423056382085,0
488774,0.36532387273975736,-1.562424658579385,-0.16961165789272906,0
488778,0.36532387273975736,-1.5671244373235675,-0.17464713511863889,0
488781,0.36247043564507514,-1.5511787594415198,-0.1775005722133211,0
488785,0.36330968184939344,-1.5483253223468374,-0.17632562752727549,0
488789,0.36532387273975736,-1.5642710002288853,-0.17968261234454871,0
488793,0.3609597924773022,-1.5567177843900206,-0.17766842145418477,0
488797,0.3606240939955749,-1.5592355230029755,-0.17397573815518425,0
488801,0.3604562447547112,-1.5587319752803845,-0.17380788891432059,0
488805,0.3609597924773022,-1.554032196536202,-0.17817196917677577,0
488809,0.3587777523460746,-1.5597390707255665,-0.1785076676585031,0
488813,0.357099259937438,-1.5562142366674296,-0.17817196917677577,0
488817,0.3584420538643473,-1.5432898451209276,-0.1801861600671397,0
488821,0.35911345082780194,-1.5516823071641108,-0.17716487373159379,0
488824,0.35458152132448306,-1.5753490501258869,-0.17699702449073013,0
488828,0.36079194323643854,-1.5701457236591134,-0.17917906462195773,0
488832,0.35693141069657436,-1.5605783169298848,-0.1785076676585031,0
488836,0.36364538033112076,-1.5412756542305637,-0.17615777828641183,0
488840,0.357099259937438,-1.5459754329747462,-0.17716487373159379,0
488844,0.35944914930952926,-1.5459754329747462,-0.17917906462195773,0
488848,0.35911345082780194,-1.5424505989166093,-0.18152895399404897,0
488852,0.3597848477912566,-1.5372472724498358,-0.18035400930800335,0
488856,0.3612954909590295,-1.5552071412222477,-0.17733272297245745,0
488860,0.36330968184939344,-1.5505073624780652,-0.17531853208209353,0
488864,0.3621347371633478,-1.5464789806973371,-0.17766842145418477,0
488867,0.36196688792248416,-1.5515144579232472,-0.17531853208209353,0
488871,0.3629739833676661,-1.5437933928435186,-0.1749828336003662,0
488875,0.3617990386816205,-1.5439612420843822,-0.18220035095750362,0
488879,0.3564278629739834,-1.5528572518501564,-0.17598992904554817,0
488883,0.3597848477912566,-1.5387579156176088,-0.17145799954222934,0
488887,0.3606240939955749,-1.554032196536202,-0.17515068284122987,0
488891,0.3646524757763027,-1.542618448157473,-0.17783627069504843,0
488895,0.3643167772945754,-1.5345616845960173,-0.17867551689936675,0
488899,0.3621347371633478,-1.540604257267109,-0.1694438086518654,0
488903,0.36163118944075684,-1.5429541466392003,-0.17615777828641183,0
488907,0.3601205462729839,-1.5651102464332036,-0.17531853208209353,0
488910,0.3626382848859388,-1.5672922865644312,-0.17699702449073013,0
488914,0.36028839551384756,-1.5641031509880217,-0.17380788891432059,0
488918,0.36163118944075684,-1.553528648813611,-0.1775005722133211,0
488922,0.3597848477912566,-1.5397650110627907,-0.17598992904554817,0
488926,0.3634775310902571,-1.5397650110627907,-0.17598992904554817,0
488930,0.36247043564507514,-1.5323796444647897,-0.17481498435950255,0
488934,0.3597848477912566,-1.5291905088883802,-0.1758220798046845,0
488938,0.36448462653543906,-1.5288548104066528,-0.17481498435950255,0
488942,0.36666666666666664,-1.5434576943617913,-0.17548638132295719,0
488946,0.3681773098344396,-1.5454718852521552,-0.1801861600671397,0
488949,0.36582742046234834,-1.5533607995727474,-0.17833981841763943,0
488953,0.36163118944075684,-1.5434576943617913,-0.17682917524986647,0
488957,0.36498817425803004,-1.526840619516289,-0.17649347676813915,0
488961,0.3663309681849393,-1.531708247501335,-0.17447928587777523,0
488965,0.3596169985503929,-1.5296940566109711,-0.17145799954222934,0
488969,0.35827420462348364,-1.5375829709315632,-0.17011520561532006,0
488973,0.35340657663843744,-1.555542839703975,-0.17515068284122987,0
488977,0.3552529182879377,-1.5704814221408407,-0.171625848783093,0
488981,0.3584420538643473,-1.5592355230029755,-0.17028305485618372,0
488985,0.36868085755703056,-1.5449683375295642,-0.17112230106050202,0
488989,0.3606240939955749,-1.5538643472953384,-0.16843671320668344,0
488992,0.3606240939955749,-1.561417563134203,-0.17447928587777523,0
488996,0.36247043564507514,-1.5491645685511557,-0.17347219043259327,0
489000,0.355588616769665,-1.5552071412222477,-0.17095445181963836,0
489004,0.36028839551384756,-1.5609140154116121,-0.17347219043259327,0
489008,0.3609597924773022,-1.5577248798352026,-0.17447928587777523,0
489012,0.35911345082780194,-1.5501716639963379,-0.17884336614023041,0
489016,0.36196688792248416,-1.549668116273747,-0.17951476310368505,0
489020,0.357602807660029,-1.5563820859082933,-0.18152895399404897,0
489024,0.36112764171816586,-1.5542000457770657,-0.17649347676813915,0
489028,0.35609216449225606,-1.566453040360113,-0.1775005722133211,0
489032,0.3626382848859388,-1.5652780956740673,-0.17884336614023041,0
489035,0.3623025864042115,-1.5451361867704279,-0.18169680323491263,0
489039,0.36834515907530324,-1.5399328603036544,-0.17716487373159379,0
489043,0.365995269703212,-1.5508430609597925,-0.17347219043259327,0
489047,0.36448462653543906,-1.5345616845960173,-0.17884336614023041,0
489051,0.36414892805371174,-1.5404364080262454,-0.17179369802395666,0
489055,0.3676737621118486,-1.5293583581292438,-0.1758220798046845,0
489059,0.36582742046234834,-1.542114900434882,-0.1707866025787747,0
489063,0.365995269703212,-1.5552071412222477,-0.17112230106050202,0
489067,0.365995269703212,-1.557557030594339,-0.17817196917677577,0
489071,0.36280613412680246,-1.5612497138933394,-0.17531853208209353,0
489074,0.3629739833676661,-1.555039291981384,-0.1758220798046845,0
489078,0.365995269703212,-1.5572213321126116,-0.1694438086518654,0
489082,0.3656595712214847,-1.5577248798352026,-0.17615777828641183,0
489086,0.36666666666666664,-1.5567177843900206,-0.17397573815518425,0
489090,0.36414892805371174,-1.548996719310292,-0.16910811017013808,0
489094,0.36247043564507514,-1.535736629282063,-0.17447928587777523,0
489098,0.3612954909590295,-1.5511787594415198,-0.17364003967345693,0
489102,0.35860990310521096,-1.557557030594339,-0.17095445181963836,0
489106,0.3606240939955749,-1.5609140154116121,-0.1686045624475471,0
489110,0.3547493705653467,-1.580216678110933,-0.1766613260090028,0
489114,0.3639810788128481,-1.5647745479514763,-0.17917906462195773,0
489117,0.35995269703212024,-1.5719920653086137,-0.1766613260090028,0
489121,0.3539101243610284,-1.563935301747158,-0.17548638132295719,0
489125,0.35693141069657436,-1.5588998245212482,-0.17179369802395666,0
489129,0.35995269703212024,-1.573838406958114,-0.17112230106050202,0
489133,0.3592813000686656,-1.5600747692072938,-0.17112230106050202,0
489137,0.35659571221484704,-1.5681315327687495,-0.1793469138628214,0
489141,0.35827420462348364,-1.5573891813534753,-0.17464713511863889,0
489145,0.3567635614557107,-1.562928206301976,-0.17011520561532006,0
489149,0.35944914930952926,-1.5521858548867018,-0.17733272297245745,0
489153,0.3527351796749828,-1.561921110856794,-0.17632562752727549,0
489157,0.3579385061417563,-1.562928206301976,-0.17011520561532006,0
489160,0.3606240939955749,-1.5679636835278858,-0.17397573815518425,0
489164,0.3579385061417563,-1.5671244373235675,-0.17280079346913862,0
489168,0.35542076752880136,-1.5790417334248874,-0.1749828336003662,0
489172,0.3559243152513924,-1.5803845273517967,-0.16977950713359272,0
489176,0.36079194323643854,-1.5766918440527962,-0.17766842145418477,0
489180,0.35860990310521096,-1.5672922865644312,-0.17766842145418477,0
489184,0.3552529182879377,-1.5780346379797054,-0.17833981841763943,0
489188,0.3609597924773022,-1.5627603570611124,-0.17179369802395666,0
489192,0.3572671091783017,-1.57182421606775,-0.1707866025787747,0
489196,0.35743495841916534,-1.5805523765926603,-0.17481498435950255,0
489200,0.35827420462348364,-1.5597390707255665,-0.17598992904554817,0
489203,0.3587777523460746,-1.562928206301976,-0.17598992904554817,0
